1.122852867178488
1.0562191918323605
0.8643305836100479
0.8053403708882922
0.5793375272493982
0.4193596376894074
0.1539903567177387
-0.09362865330177646
-0.2655680364967196
-0.23444488431550486
-0.4102062901799641
-0.37292690094577174
-0.30011865313511543
-0.19683138328400873
-0.2788749599895577
-0.24983404318208302
-0.23556554862006146
-0.06019611259622844
-0.045975930309819876
0.014248204298840494
-0.13887521795220342
-0.08903528475016709
-0.05473144014825483
-0.05935593607148791
0.019086791135259712
-0.11113068740179548
0.059765529015078936
-0.042809008235840364
-0.011750183799428458
0.021606837870670005
-0.010754395829228236
-0.05138402136444053
0.09368148959495896
-0.025872143984246122
0.06309251708203593
0.11166261469706179
0.03209131064180605
0.17005646026069415
0.02151957905402979
0.13635076094784687
0.17988695713941394
0.07254688512236789
0.1299554077372148
0.2548733635771553
0.11905443772119939
0.2455840842862563
0.1654878521255747
0.15253539053039356
0.21207518122719787
0.2546323274199343
0.38087693851072746
0.24451826445344996
0.4058171222905937
0.35183710791483536
0.42702158198993134
0.41296879507014955
0.3297018763169991
0.4554686558122477
0.4028414743596463
0.45313538345925686
0.4065946784200822
0.33020186913085825
0.3306095616854302
0.4698190433982963
0.43227302992194666
0.4055273850594226
0.2989080180951598
0.289881337211884
0.2570381805123566
0.2902394701880354
0.2933165421937068
0.34131203380327996
0.3560025461196657
0.27981334839186023
0.2601370899101402
0.267039697777438
0.14287037531705316
0.2384359928664811
0.12259569830188893
0.24530347026924576
0.15917672647979977
0.057427292747578906
0.04466417184699613
0.07058529255250895
0.056031691500177956
-0.00328404401709681
0.1445728272890005
0.13075711036162585
-0.047802492532622975
0.12087666762429446
0.023607582473047183
0.002966883491993722
-0.05978789542516048
-0.022864978183786144
-0.057577335134564915
-0.03380390469949006
-0.06531139258514841
0.06552339527264121
-0.018695824384716706
-0.09403159704041408
-0.06626268599631811
-0.027727489305263597
-0.1350287315947593
-0.13679534792673054
0.029648077625129887
-0.15288687663292078
0.008534290896529892
-0.1351786417409972
-0.1007723900837566
-0.15476653001509588
-0.055869755528256536
0.009879689859914859
-0.038536449453076244
-0.06948056210616561
0.042157010294554986
-0.051970090297407824
-0.07662602064329258
-0.09529613599370101
0.0071639970377190415
-0.1091335080667569
-0.10104047037339861
0.04790728086419904
-0.14910475816947955
-0.11261493759889678
0.05039572517455965
-0.10291756676583731
0.035366997717286394
-0.06460053973535468
-0.024817434369705446
0.0363458084212169
-0.10604784527296994
-0.1039673038441766
-0.1334430539483168
0.04711304613966538
-0.12423424338012391
-0.07647033913831093
-0.09450190793245888
-0.02180588771305416
-0.05271570918383825
-0.09843732390618892
-0.044907020812272526
-0.08565897342390821
0.047409721145747014
0.014695318442944319
-0.0891582489299271
-0.018592144589983282
0.015328675151386278
-0.09910310104085877
-0.09952137909988557
-0.06722229444003082
-0.0748201292676626
-0.01506011127693696
-0.10799287970826449
0.07477592872444176
0.052220515414828445
-0.05345209916745695
0.03658999625269952
-0.07113844869256442
-0.07018998656081743
-0.05692552824858598
0.06712902747946525
-0.009865756500442645
-0.03453945672056073
0.0559326003408198
-0.03778900945432149
0.031380889021563566
-0.04501026626182354
0.01978574640185601
-0.06137827464736137
-0.026935361090012558
-0.028442153408256787
-0.05800068923313824
-0.027212108850999783
-0.012545680721722208
-0.013738684999708884
-0.022047085259848654
0.07633554449188755
-0.07156197959667024
0.009275262369663273
0.09206338660781856
-0.02926079401012116
-0.08824407387817872
0.10820791344337191
-0.03410330524806934
0.014701983357387448
-0.039303533160955625
1.0743374952668777E-4
-0.05535396388183607
0.14461182457830735
0.12063584486036558
0.14872840710565804
0.16729120701863906
0.07648088785174732
0.12735699600614833
0.1425020724176555
0.1698696472380226
0.15644758616678833
0.22586642162062148
0.09890550683486542
0.18692860294063798
0.19730947821336675
0.2401127854261318
0.20125129286550286
0.21038447333952284
0.34352288673975745
0.24279658929979064
0.3157789871565323
0.2981295661716221
0.3434682021456203
0.3358592850786889
0.18874514542793153
0.29199852453796704
0.35008764024063704
0.33583472001827164
0.20175029685974855
0.26533704331589236
0.10670460919363454
0.2117315080001183
0.12920675898150483
0.19917659704929155
0.14208060023259708
0.16489866142809956
0.2010094874886963
0.053341789475845544
0.15179958371774113
0.06800319261600628
0.05447093670063374
0.10061016603757779
0.04330644809564878
-0.024624770299398337
0.07200393170212388
-0.07454761198516206
-0.04091002404798161
8.992300546986076E-4
-0.04337337063433442
-0.14025362259282134
-0.050003295013526905
-0.05136833213131656
-0.1721487305972752
-0.20714588398946382
-0.04220495256273282
-0.03358334968309737
0.14356273333089167
0.27989859885627555
0.5315086003651457
0.6047347027846287
0.9318245926570325
0.9877037538786363
1.0582428272277695
1.0694219297736862
1.072433155166848
0.9028400608672003
0.8438817021179856
0.6269300599318476
0.30841707335067503
0.1305369726069074
-0.04859199241117472
-0.15119981261650067
-0.2685839079999796
-0.3036247814709552
-0.3025526492099587
-0.1586750055572047
-0.3002833192838522
-0.2791175844768672
-0.08048641795036998
-0.18006072220530434
-0.05321558294869486
-0.010697994734630123
-0.06568923899469703
-0.07375331740084645
-0.014527522598524047
-0.01083147663129818
-0.04096563633557304
-0.0019293655491114045
0.03022655403399841
0.010314707789092901
0.12422606308824923
-0.027130256155779575
0.14799917933157647
0.037450696275921756
0.057183009606699434
0.18448047659253458
0.01429485812690684
0.044471082528288686
0.16431418977842877
0.1681947529318837
0.2425797481481049
0.15102563964859256
0.17007128531045945
0.2775364805212213
0.2579227417383817
0.17362139267172866
0.3193107328460186
0.27618498332255154
0.19780911294787729
0.3292263181439257
0.2785880664906966
0.3819852841571682
0.32383364030276984
0.3960966087367362
0.45272734138933834
0.2998256210938204
0.3103931796843741
0.4678808818706205
0.4269448281224598
0.37174684075392245
0.5151857762398743
0.41314258310383006
0.3754689145152801
0.4111969394822445
0.4343203651349202
0.5256323272849204
0.5341866434249092
0.40248361908967345
0.51340524046353
0.38428263696653625
0.39591605671121444
0.4226987344444598
0.3468131478518205
0.45565573474341853
0.4009928619171258
0.41969726728392426
0.2909157979437438
0.3291493708598951
0.42479564636843997
0.27760649050243913
0.2963246522029731
0.19321791760024382
0.24764426361663844
0.23849454911832005
0.2696653337840216
0.13166348846560072
0.22895821241411432
0.16505380512345086
0.14149123284610152
0.11785535629889671
0.14054838554207466
0.09199390869747397
0.11344286447056445
0.10737022776853891
0.043690162267306695
0.11452628147464468
0.08437953171933896
0.07474736779929844
0.019991841471640945
0.11869708747150105
0.05568472829217443
0.09375475854861223
0.11683051870672073
0.11786054901258794
0.012998851705471881
-0.04599523052405369
0.04107323047954231
-0.03420640906324049
0.06651575638184695
-0.08003320415469578
-0.07179104334417737
0.1078522592648507
-7.979872488119745E-5
0.09030479904443457
0.026455810925257606
-0.05794434744012088
0.08147073042981419
-0.01884312745266311
-0.026533162752550216
-0.0010600394430227544
0.07656838230817264
0.09375082523675816
0.04341561936065612
0.04580498275192777
-0.07946836489645788
0.06456660278459717
-0.02530522618844261
-0.016678304537101916
-0.05089334828812646
0.07178705306817829
0.045294176668135386
-0.06603054235084982
0.10252731233037814
-0.002535308294538508
0.015051219457119146
-0.06853543431895319
0.04250494507622139
-0.0718966564067269
0.057887179622165
-0.032789754113837
0.12235459010892481
0.057625656475659204
0.07445704653739911
-0.051229407819015194
0.012301486332853861
0.05533012229108567
-0.0388783539196606
0.004872383060345074
0.09005192868870468
0.02723308597965014
0.1023461716865988
-0.01568764473096023
0.008135930355503182
-0.05401893149525522
0.12342000255431126
0.0547571722918687
0.12132313878302554
0.007809063966380734
0.12890526988823098
-2.069083151569756E-4
0.09827488331526325
0.029320314356402144
-0.023763195408942478
0.033519552859301784
-5.866109296592606E-4
-0.058669619402460696
0.13292512966897208
0.041710450568753464
0.03583879898453379
-0.042432965968529204
0.058117225285138435
-0.033699950225535735
0.07379408292634138
-0.05093831555067832
-0.0518142998531452
0.04918991517439569
0.08391803611353271
0.04969679210137169
0.017006117391122486
0.04645711851391421
-0.03690739693415179
0.1230252560361929
0.12140882838259265
0.007604726193280037
0.09155058342971406
0.045679927960915634
0.15579374376584249
0.030690310258740028
0.04939666230843396
0.12467773175858665
0.10283250962691835
0.07397088387596149
0.1330545234914315
0.09258662820917574
0.10517500885271658
0.09489878270169849
0.1259050154349758
0.12023349733540405
0.08475852953667899
0.10948079435113471
0.2362292917038787
0.23125578183613116
0.21058329463392667
0.18474591546759267
0.3102521978183987
0.321164586519191
0.37452698652614674
0.25451661053794206
0.21731708320245885
0.37125730477516306
0.32541519123699164
0.4081523422716525
0.2954241967624438
0.35981541049257726
0.33310230006229824
0.30136304423746585
0.3761981681160868
0.20854731449897157
0.25210487248800356
0.18113354364234543
0.2422592279416108
0.29145597627814357
0.2537472924086231
0.15829963772908207
0.09573968114799324
0.09221605601358072
0.07778111929717742
0.22340019175866815
0.18114666782877434
0.18711717969092662
0.10965295668545864
0.11054399645515271
0.048546068264069125
0.08660755659827135
0.01706795577294251
0.01286266877877422
-0.027966288422970886
-0.05101429147437614
-0.015864281211244634
0.031755252037041576
9.945141498891863E-4
-0.06875953581789937
-0.12321495778844732
-0.14071529983910855
-0.15697883588481887
-0.13393014112163454
0.08034615163828404
0.23122630515611145
0.21086169188525206
0.3996384851154832
0.6482877188783607
0.8941944941424054
0.9672258007822971
1.0317251260055962
1.076645213206275
1.086332049870381
1.1014808590596832
0.8549342878711295
0.6014913626125955
0.3831585689467183
0.3270477358463256
0.07234303624736813
0.045514560012255054
-0.11051176550780795
-0.11244058048262193
-0.14905070767014897
-0.14328843035239278
-0.1143704096401354
-0.11854813389611125
-0.07911622539763022
0.01869519610500471
-0.030951662644840817
-0.05879775745861332
0.022370406898785267
0.04588451234227834
0.06722006688834853
0.09056142737808731
-0.0012489988220720366
0.04535297740990921
0.014265538400197508
0.11116298341247656
0.13349592211355676
0.0692910827913857
0.07920085833280058
0.019112842510438405
0.11879175203737352
0.13667983922815685
0.10815667724760694
0.04013847166299912
0.19394898174497982
0.08767948552633247
0.17013581200811276
0.10766079886462185
0.17173372281885335
0.17599223558671684
0.21153270202051616
0.27708747499902264
0.21040499824215017
0.21975086975399027
0.30144753007681374
0.22030531617755753
0.40041325917310683
0.37156733253059193
0.3279351173194662
0.44536078028644766
0.2875070874344499
0.42183605547624287
0.3441256517090913
0.46976827312657415
0.3760970519473527
0.36465296360175
0.5412884488684663
0.4569075238987109
0.40919714208598384
0.4662754058963675
0.47798072451988627
0.3763367271298965
0.48720528648088546
0.5075171072371994
0.550445142264171
0.42161927576288033
0.42383846137009057
0.43323881777794476
0.435210812810202
0.3824211033096519
0.33065599419061814
0.29874616666606424
0.44010026107876066
0.3617315517575596
0.38644663729433704
0.3407822078790255
0.3110033498393711
0.35761765630139747
0.3046588296778642
0.30766389795060156
0.16856310740788438
0.2782326432599139
0.16103995977228402
0.07342348431641219
0.22430147703207604
0.11603582745280352
0.05588219424013121
0.02882030012805395
0.14361050212184392
0.09722866863595031
-0.02700014525501636
0.036251411576046874
-0.03348618664493713
-0.05394131593538315
0.10387131788709349
0.11234239019316498
-0.06987887351487843
-0.01860158441521974
-0.038401568741266934
-0.03609712022774908
0.04937350940704073
0.08248576733060518
-0.06034174643254319
-0.08645214906817836
0.03536483568122999
-0.033070629561888124
-0.06842210683293162
-0.07949605475748152
0.040049650524309505
0.04324140600667291
-0.09605491747380229
-0.1047149956274149
-0.08559494220281544
-0.020446601139110544
-0.11325848619455878
0.02316822110665543
0.013996651508817251
-0.053050173418330626
-0.05112660394733396
-0.06275521020337357
-0.08076878242122654
0.023382065912157926
0.074226325939515
0.046423798499172275
0.06981453096148725
0.029228099120573926
0.03142358518791151
-0.042142181862983887
-0.026262574146568306
-0.07168760959844156
-0.027280892864641092
0.018854093645525975
-0.09978260074406431
-0.014636397746694497
-0.003928216685319917
-0.08168483487625011
-0.04377833796777916
0.012664824746585937
-0.07426566779041024
-0.10270073174722427
-0.05843687018037722
0.050980071958243944
-0.09981101380205108
0.011914898068976644
-0.002173945477250236
-0.09506653913878985
-0.10906888874107797
-0.10465239490621808
-0.03547346520383384
-0.11147430008815237
0.0034232207975202905
0.018270832839310594
-0.0797991935668694
-0.05529559760814218
-0.0946835434516088
-0.05588813138147643
-0.05258041886079403
-0.04475770831043499
0.07092344881958851
-0.00975233676022562
-9.505639877552922E-4
-0.005268327331442668
0.06517589196022237
-0.044091251501417655
-0.05642043284145805
-0.10742935646775496
-0.10941172867312211
-0.023806837539135428
-0.033823907539150766
0.07267947329545255
-0.009375431403025524
-0.054454604539569365
-0.04737703932991737
0.069445900115508
-0.06957743763449298
-0.10839070718730698
0.024001151414247926
-0.07172089924262703
-0.028807172500568155
-0.06591074199458652
0.05703837265256331
0.08168895551806828
0.051244022182258236
0.07922121868193631
-0.01653113260870176
0.03647823696229305
-0.022651063916457014
0.059308858942856035
0.009514293781730552
0.09016873025609132
0.011582337451388591
0.00603514246846721
0.10685835974088048
0.028954723787096404
0.031186181054120868
0.12866150901948076
0.0558309795748846
0.12484191322191932
0.20251865982447065
0.09359477526018352
0.13557469080767864
0.1232378962162003
0.24067201900524168
0.2873333468050834
0.3200120669380587
0.27988676269745105
0.21648401141275314
0.3543464212287667
0.272754280525292
0.2744959743066793
0.2625407536055502
0.17150649955935512
0.20211818420852135
0.1528313000250361
0.2608658911721962
0.11247997655955014
0.0756576491974628
0.1706510369992929
0.05240757715961318
0.127310557389663
0.07004083317991464
-0.029067121797388143
0.1265102699803412
0.10616889586033249
0.10785250842612494
0.07690806996062374
0.08249496540729076
0.08328881417050561
-0.09809548462893278
-0.10547266774311351
0.006757405620127978
-0.16143947368083236
-0.017782413770885186
-0.20569636481762618
-0.20386691879446756
-0.09613284915387008
-0.2748694417876435
-0.1535625475466688
-0.2134591089933775
-0.17209142783070083
-0.14671711086360398
0.10040873863038174
0.1910435749604706
0.20840375533565972
0.5174406495672518
0.7217806773775904
0.9509226654579954
1.0093904925338564
1.1694964153878116
1.1450062817257831
0.9273831065316478
0.8964900401324787
0.5851301982991642
0.41378429111423704
0.285752139430101
0.004724696868057272
-0.025401603937314957
-0.12380025869075625
-0.3238496983047597
-0.36723055755835377
-0.22181640178993567
-0.23297757479017045
-0.27487347007142243
-0.2516351488743733
-0.15398464498460326
-0.06121882004959167
-0.043721595498456806
-0.06596636898558973
-0.0013514381149842825
-0.14586414727595504
0.01872426795892066
-0.004731241615182923
0.039936085879296715
-0.037961008558638
0.01625772693931942
-0.06750936070491359
-0.09657739663280383
-0.010572553561345344
0.036475509497451965
-0.06494805874500377
0.0026362302313263537
-0.004331969454590148
-0.011089788425316806
0.04977801368791336
0.11601998129488031
0.11319895217318865
0.10523817487481438
0.08581038292937035
0.14487514652716313
0.08983027492068016
0.23873121834402822
0.11583081440704146
0.1952327700798202
0.21811160055158088
0.2122040426980275
0.28611082091761264
0.250722700097981
0.28625571154183566
0.31581084931160186
0.20079528911062103
0.21849933446908898
0.35586062907636207
0.3508953015934598
0.43056479005101284
0.35936989489484833
0.4359498911436648
0.4545299266392816
0.34233543498315866
0.37691064626008997
0.2948795837250231
0.2914999912653821
0.3384115536893957
0.27866656706006315
0.42735894444744793
0.2683861445333617
0.27479605152697656
0.32430092911480685
0.2555415666864349
0.21406394187106598
0.250480973797209
0.3701325497626353
0.17848328215346043
0.17137637248441756
0.31473840651713475
0.2549220593498094
0.120286001784079
0.1564810356903234
0.1543396214397297
0.15567173861540773
0.09828824176359263
0.03135823120810806
-0.009782807960811865
0.13596399434008202
0.06622484006873483
0.08723749037486928
-0.011173508646535706
0.04631099572093833
-0.021592288340819776
-0.007721877002959609
0.07395681597108342
-0.09389053278108699
-0.10233593879762741
-0.07040460593401152
-0.08396530451254124
-0.10363868147355504
-0.14205087625262908
-0.09915295739682839
-0.012866696622411383
0.016025890304802046
-0.06933716434528164
-0.13460828824091947
-0.005135906422919723
-0.025252756173332336
-0.18115606762845934
-0.016067828698202252
-0.16299801800526068
-0.04681357114014412
-0.09326804936948088
-0.12198402412766597
-0.07781915882339699
-0.03308509047662504
-0.06258142485728865
-0.05399815821144324
-0.04483544866210699
-0.047117961153250426
-0.14458937870074828
-0.042820316853942136
-0.03630665565466176
-0.09408361878728992
-0.03325020538885698
-0.16054470022062403
-0.10140703263572538
-0.058288647471952636
-0.13216484541412016
9.358858961226735E-4
-9.65928632780555E-4
-0.1037344503983183
-0.0954597377198842
-0.030587165996800433
-0.05400054737664648
-0.12377392688032357
-0.0622650949827753
-0.15271056791754456
-0.038394817409314205
-0.04689780155133588
-0.16929337429571262
0.0021659180018160362
-0.13086596797648936
-0.15173253545707222
-0.08718884309634883
0.008243080490856397
-0.1213471000302391
-0.09823867105471892
-0.1026695763512309
-0.17180174014694716
-0.11537776839650445
-0.11165767801172582
-0.16459420915333856
-0.09800975776307883
0.014390547365349407
-0.16858315829090376
-0.08027178483416962
-0.04001548205718178
-0.09232975831107183
-0.16715986731221155
-0.1092354412503654
-0.12309504611181646
-0.15772847687312458
-0.07728123715263574
-0.08404815268788604
0.00724977074192755
-0.16390239345166047
-0.05486317873041248
-0.1426904511908383
-0.07602921543167344
-0.07717656590113241
-0.0829980084051711
-0.023117562735697733
-0.13294867161874746
-0.027781609822414316
-0.023038664317884504
-0.16708834755386387
-0.10606376047336191
-0.1242668312077432
-0.05125101211307594
0.011141032993778055
-0.1574327803322107
-0.08507688255762302
-0.03108745475764252
-0.008001166825696016
-0.020994077144345237
-0.0812003567586948
-0.060678008187819744
0.00457032571013663
-0.07643502845765396
0.056277259545195524
-0.0017223955499725985
-0.06313294841789262
-0.0024660202026232647
0.08006028770828534
-0.018498174390457117
0.08789326113186793
0.08491013428996014
0.12388044431177841
0.04194772101787851
0.03392675293460495
0.09389147371432713
0.06963004464700297
0.21744055894306075
0.18424295027246915
0.16074559726408635
0.20937365136078873
0.2978943579330149
0.2548204847419164
0.15382855500489712
0.2750420977918841
0.2689175078930748
0.16739799003390585
0.12859897036505435
0.07797590158783144
0.23989031300709068
0.11619643213493523
0.1487417006466888
0.11466873801462155
0.11643100423851614
0.07956730277629204
0.048210084573167986
0.08456967796197051
-0.047792034092401695
0.10146447003853833
0.018465536969381725
0.04400317438440842
-0.005731437525472314
-0.12543252882809225
-0.12315075069169845
-0.052002288832757884
-0.03708626295613079
-0.12866046069595344
-0.03135477883347329
-0.19425976159769182
-0.0582278301011995
-0.18618064380415458
-0.16688848022736041
-0.1250400245248774
-0.1677437931816475
-0.10759969065613109
-0.11354359709615874
-0.12398903814404182
0.028753954526198444
0.14511087213182772
0.3708073898571655
0.5438396197944522
0.8119298664493254
1.009319094457798
1.1158395067914195
0.9920882553009397
0.9853440482345808
0.9194865514253004
0.6948496330186165
0.5274439852458347
0.22196959742975766
0.06415159728342881
-0.172299404532833
-0.20812504910670346
-0.2457341489269245
-0.2590528554113597
-0.31014343757473845
-0.32317775977513696
-0.3040545187954942
-0.3424047895840773
-0.25692031892572553
-0.26666136526323514
-0.23771969959455774
-0.1459505873752071
-0.12758367964369455
-0.15974544865717383
-0.11353644832007605
0.011290170260759708
-0.06417202003328201
-0.06105315542959189
-0.09303746341680505
-0.11232253394837396
-0.03792302892621698
-0.07478286305375245
-0.010573796993166316
-0.024650211722524008
0.06782008447051095
0.04848796505399473
0.040732340257486246
0.046411850290002235
-0.015882669732836634
0.11190639224325044
0.07986111317411078
0.1643884229274556
0.09377525872375977
0.13698069330980453
0.098833631793315
0.12664234327370213
0.17495043069499275
0.06931492709672728
0.16162006980883328
0.12220121301647761
0.21191871772425533
0.20144430250680012
0.18907473274827444
0.29482191546550346
0.3268373787590783
0.23708651739532263
0.343856365356477
0.391672051767498
0.3376855261004201
0.39658815074322773
0.3176906485189876
0.3575312022022725
0.29935000884823926
0.3924965560101528
0.4637588936476429
0.31806626429761037
0.4310523413052393
0.4564560647695598
0.36835836631313534
0.4219480042649341
0.2516906342291481
0.2768873884869647
0.29949721018063596
0.3340535955043428
0.25559557144076367
0.2908160616599588
0.35249829712168473
0.15831474308022153
0.17098727163932909
0.20293857387934605
0.2228710052779412
0.21083128364768303
0.20823425612909396
0.10660185279002493
0.0659860747585815
0.055348832188695615
0.07999714679040248
-0.006064031039076628
0.03718903996382783
0.152080446489969
0.09535511579501035
-0.05449218740597897
0.04388125768991111
0.03873232267672018
0.007699246178448161
0.05587977955152204
-0.07001263276311298
0.05605296809957372
-0.09165240412704576
0.05797196751375368
-0.09163192969726941
0.04341984860174132
-0.0916074564205889
-0.061721975269057185
-0.14963575615882813
0.024753524549442588
-0.10627930882101068
0.008477092050847568
-0.03271950617991981
-0.023031453531196205
-0.01144614751598235
-0.06694228924237773
0.005256338579969599
-0.0037358181501798843
-0.16553337325891637
-0.13583280590189528
-0.11142148652029266
-0.16329298976610124
0.009986390340706253
-0.026611517145747582
-0.14679102027547417
-0.0040840843294554785
-0.1238747490491468
0.003152333013916389
-0.14261683935520558
0.001203719692456029
0.0016278445846929362
-0.13779217899259105
-0.0024190606602317935
-0.10771136927536831
-0.08704923912294006
-0.07221426695536111
-0.1183381022015077
0.017241243443056525
-0.14805685703055776
-0.11233235926930316
-0.13819141485618064
-0.007369325942812893
-0.025335198430693904
-0.12084156748648835
-0.13739397674944942
-0.048969980512769504
-0.0044465470323265185
-0.13055384524695118
0.004922788311261007
-0.048067308362654326
-0.14093746048677297
0.0408373754873797
0.019160360189843385
0.014736653028842098
-0.014521343597618096
-0.04404350046112092
-0.10417096627602522
-0.023783047790252622
-0.09940873088472783
-0.10931652262198031
0.009046165782399508
-0.07647327342719468
0.004014714726584968
-0.06701864660583441
-0.12427076347931108
0.059223161032224705
-0.061197572188964044
0.06076053846589796
-0.010759961654925942
-0.10463213223526635
0.05572500539597969
0.011915622188027775
-0.006384034988854991
-0.08715118369746382
-0.08586395402073242
0.0035060849584747783
-0.11477902619694434
-0.02849077618196153
-6.472671146771844E-4
0.060355788633131305
-0.05047942799553669
0.08549359786385184
0.012027019472233426
-0.022731088109999097
0.0670393072280186
-0.02075730199504976
-0.06524264390263358
-0.0982174594093514
-0.049180310371187023
0.002918180739938525
-0.05220591212390579
0.0025979834638936387
0.10093238379029985
-0.06958643093599992
0.09867643481596901
7.661040372933248E-4
0.05562927186364471
0.07498235158380649
0.10990318444826366
0.14686150966804745
0.13831359733910975
0.01726792764695384
0.0676456357495812
0.13083668171072305
0.22262693855507526
0.15311616739011585
0.2469915569885042
0.2570328496114844
0.3306630875464923
0.21956141853203595
0.32161397964674127
0.3388533437366503
0.33808310386866186
0.20444139899480557
0.19861247048166816
0.32747199915082226
0.289143411673045
0.373971279921871
0.29711495823593587
0.29627087936401786
0.3149591962548683
0.2950871661283152
0.137025803301897
0.11311593181426574
0.08275130076414343
0.12742608732947988
0.22871532838584363
0.20877796710272745
0.07200979618778189
0.18313420987942647
0.09388445642781587
-0.02133145085811361
0.02153925912392815
0.1328416790619638
-0.03313560633694167
-0.047723804672692605
-0.07605744297827846
-0.08981608240500936
0.05968883481482133
-0.022155453554374482
-0.03334211461303514
-0.09632231161267334
-0.10436060384724113
-0.11163696239785795
-0.16856965055993106
-0.13072910179219577
-0.15399833321729473
-0.1013422782357003
0.026929975058487144
0.05355541626041539
0.30919392253720496
0.4663024629459483
0.6696064285547378
0.7884549523192921
1.0962951149155125
1.0329952647014917
1.0581311236016877
1.0767695087702849
0.9589679853115033
0.7129773044330106
0.6711011592676746
0.4129158839696584
0.27588075264397327
-4.929961583347818E-4
-0.09647231605017917
-0.2988238366026032
-0.18711236698320927
-0.20124499017759329
-0.20422095548023095
-0.333860713293634
-0.13460380393658622
-0.17729490253441602
-0.18957734146769817
-0.045622163156556816
0.018923858031223206
-0.024890000247507968
0.0731606114385594
-0.06870426287670606
0.06943686052523627
0.09167407304697756
0.01551195662644773
-0.042707358377430775
0.09767375026711438
0.11575851090002241
0.08825065918791178
0.006435185895916691
-0.02013967261924586
0.056045603668005685
0.05709636211754447
0.1740045632689865
0.18339052057855088
0.1697328421594531
0.1264773078386046
0.11523330676580118
0.09277707652819281
0.07642345964076636
0.2410616937276246
0.2753111739045786
0.14176574752805413
0.23170811561079577
0.138137932274918
0.2184176964498517
0.16754941172802562
0.33245600993425706
0.2785498702265833
0.21554071489723198
0.3004625349389659
0.26393769787554866
0.3077710452647705
0.29549209629932427
0.3750865121588901
0.325098051432879
0.3865721514921117
0.4909350604254188
0.438853359244551
0.3845282310842832
0.38952847321423767
0.37345761244674525
0.40037364013642407
0.5165721557736022
0.4466950708830233
0.4842715156645334
0.4901163853927821
0.5109571488517197
0.4708882260335333
0.34148902692135896
0.3284690236430944
0.39943615703559354
0.3468370810931173
0.33401840469200766
0.29983524552297613
0.25897678542231023
0.24387663027143586
0.31392055756912396
0.19915937856506377
0.17822029221810387
0.1638411616235265
0.23967693730559098
0.1937728487867405
0.1354199555847295
0.19188352706040684
0.22067894155875192
0.07751824197257315
0.07984149581116141
0.1804744655922844
0.20180547240004498
0.06453742279105495
0.10835657327659795
0.16978084031232893
0.16783037646725124
0.05391823961454345
0.1128913840295763
0.1272154373943689
0.018886034189389077
0.025794808250630706
-0.06268768106965265
-0.06649442882105787
0.009914204432907924
0.08531952419790902
0.06749984502983832
-0.09282045785075768
0.026854158831296795
0.04630352665043541
0.04104055314037644
-0.08082834368641446
-0.013935406282383945
-0.0538563998410483
0.03308780519224763
0.03800642593032782
0.013074241790607479
0.09531074744967202
-0.06863912841251985
0.0035665798706979064
-0.09080637133385225
0.017315391120237413
0.014789577238525087
-0.07091789508127361
0.06717108412420016
0.07349225496144529
-0.06966481829809537
-0.03694701451509516
-0.036848239006784
0.06945040807429753
-0.07816889552049722
1.3995146175016515E-4
-0.013366901268943167
-0.07154034980592575
0.020181839718740102
-0.00850663947577831
0.06938892912105907
0.01576101977755079
0.01192455359169664
0.09991890564830862
-0.08853879182747072
0.1036567430745825
0.02330640481052644
-0.03679542354338342
0.08389308568000327
0.030548369379047202
-0.06373552713642398
-0.014050694530812015
-0.0013552073894474333
-0.007895838342038122
0.10213378077913338
-0.018188630201399346
0.1154839326887395
-0.01586467816515376
0.03534869336127523
0.10077500862952662
0.10193723853773003
0.025654754963949276
-0.03435521858959012
-0.04079208585784076
0.10152085792144061
-0.05024660368163808
0.01473827371720081
-0.04013899594253005
0.050564844667108116
0.03501930331198709
0.1171256256430629
0.04174672256914467
0.09289684507680733
0.09011647949751406
0.020256951027877425
0.07245363623643367
0.06246285885542379
0.12171168608078126
0.0054035175742897824
0.12327688108154566
-0.027960863691478544
0.02132177623502566
0.1280233197933281
0.11337907864618968
0.08689367585248886
-0.016198592853764494
-0.0422100105581901
0.07616376727354869
0.005322657494615919
0.09532210259459047
0.13106009900560536
0.10962249171484484
0.08564832582880841
0.0838040782221125
0.008542684609189763
4.2017821945659894E-4
-0.022959179239312788
0.0783844900578202
0.16810776237437858
-0.01870404293140926
0.17488473852914793
0.058474869638506
0.08811497065264694
0.1918306226967156
0.0998997935141601
0.2239088687537681
0.18633713739774566
0.21495279231495384
0.2821731788153383
0.29611540804644615
0.13706304747824943
0.24294498274671314
0.3524919556602106
0.20926779891598396
0.36511597502483384
0.40471721553878237
0.23697211745211652
0.2485763926727864
0.28734170511435214
0.3150808615017218
0.26572387785988516
0.22399277852459865
0.2892732700721049
0.3498289328735482
0.3450206852235853
0.3107355052056931
0.2613962730290673
0.30281684122189534
0.23561191208863236
0.2249205804759053
0.13740210953808696
0.12190196580490481
0.12961941993318077
0.17134297285304856
0.19197633355794658
0.0942415049294134
0.12223889243030309
0.0015213367001468137
0.032441047201561664
0.16545425783931494
0.004949385255748569
-0.038915320454347466
-0.0381266796547355
0.04978099291482026
-0.045484138278635566
0.00520163631608498
0.04246616715674023
-0.12362443185808614
-0.159916920151948
-0.05119796298176256
-0.04642210500927635
-0.05952712118896328
-0.047947049814959716
-0.02085910887630742
0.148941660181087
0.23942004891872387
0.449555252131417
0.5555296683845806
0.8365950969763973
0.9145837477409986
1.168695314069249
1.1244605448191978
1.1589960568171571
1.1038376615149783
1.065446852188096
0.8808271590091893
0.7003739713211758
0.31143770291209893
0.2701139518888809
0.03390966106465358
-0.020405744910074464
-0.28139756154901174
-0.26313944080592777
-0.17435250068473634
-0.18943372522140736
-0.1631377725253009
-0.15241592971894555
-0.10635974576056093
-0.16153364252857794
-0.12545691481646765
-0.09218615607840708
-0.0775079195601256
0.06805995581964555
-0.0017439670386350768
-0.007866109480738195
0.05455220961353992
0.041579051279892344
0.09252324184913266
0.08936173862446217
-0.01975169004546809
0.10451878502613393
0.05403514544445346
0.018525038336247877
-0.0033052368159269957
0.04018350381812009
0.1430814047542397
0.16832929499633167
0.06498119544137787
0.19700432349557417
0.06843802362795945
0.14043151656531194
0.15313002704275963
0.25530008063947995
0.10371941099903637
0.2170732453423414
0.24760740963263744
0.31701150899650815
0.2811224607848667
0.2554746520698251
0.33268815343667646
0.2922431425590171
0.38644654141050505
0.25958084118078545
0.26594823615020924
0.36649566633765834
0.37407103311125894
0.4390271994849036
0.38864336066175204
0.35724682344756026
0.3593080688420318
0.42790116476990003
0.37701932767033586
0.5251608770295447
0.4437171399294275
0.45987853888078817
0.49880387439556034
0.371166136054389
0.35784669935364277
0.5020019877823988
0.46415493842897837
0.406931520303872
0.364873378042421
0.42173448746534825
0.34932939747788466
0.4187659889022717
0.35038415300060366
0.3232971839446683
0.2589063306269811
0.24706411338062512
0.2519456808499274
0.2726489158007248
0.30308995849714815
0.2106884761843312
0.2841662542884482
0.14502967264362157
0.09190744605394412
0.1104756227627488
0.056067092243820435
0.13881651903121123
0.18509482269038552
0.0667342830942354
0.028747193591106765
-0.009943626528991209
0.08537247439871873
0.09796543965162853
0.09593540783479929
0.056182350464832845
0.08638972557189668
0.10516603435463094
0.06600968474009725
0.08750578318372866
0.018214976223979763
-0.07296581779286944
-0.014249692879245268
0.03766020107839824
-0.026389544464446524
-0.017315010342205304
0.07329596573134779
-0.10406201053214341
0.05119083375960243
0.028420999440891208
0.014416275551918059
-0.06325083554332969
0.04925486134757193
-0.08615260919091192
-0.006719038895237093
-0.05803730874855778
0.031130927922210075
-0.09927177129074037
-0.07198380366237841
-0.06539255323432766
0.007534820890894592
0.06442489391299948
-0.09460200770318074
-0.11907866040243639
-0.1125927571627596
-0.023686629647889278
0.04619842077848002
0.04612905864956089
-0.0015940472517548473
-0.020792033249332674
0.05642279038917333
0.03844486938840837
-0.09800636481201935
-0.12094660123074963
-0.05811974520365999
0.06503635292655321
-0.08178480892819195
0.0057570831682794005
-0.10095756524267203
0.03244885303643784
-0.04582988438949672
0.04304842942988184
-0.058095881112522715
-0.043274882158144914
0.02416440625568085
0.03878761666433568
-0.021954327366212
-0.026842374209633358
0.06141274083595964
-0.026612263177240792
-0.053446440021197784
0.009717692757456792
0.028611055913724814
0.05440054242286135
-0.013882405446438439
0.03950759185556672
-0.08794767769667944
-0.016421977793687405
0.020075842115478894
-0.057190413574982155
-0.06542934575601074
-0.09851344650535497
-0.02586821627039133
-0.04109297593997052
-0.02923563557789388
0.013015267620766574
0.004997042018235157
-0.11227000512198047
-0.07319219386721362
-0.12134793271213923
-0.1040210827040379
-0.024050551498052075
-0.12240780251436466
-0.019120256178334193
-0.004315694807058599
-0.03261349700275471
-0.08961024301661664
-0.08952408326583709
-0.017084164050210494
0.016705708214638917
-0.06630095622092436
0.055327930427820346
-0.01388643287751884
-0.12076116495671277
0.049125957829209976
0.014759038183403343
-0.0759615586849445
0.03684861876007883
0.08711463518797627
0.07058730558647666
0.019876896652933643
-0.015338528250355189
0.03456488777545537
0.055394970997602176
-0.04592424694768185
0.008470094978371631
-0.03020095976045871
0.11456285763572363
0.12118893239600192
0.1132220495755605
0.12536267262005113
0.11439505864433219
0.2290952978148274
0.1066014186587447
0.14140627689864457
0.2860421892464781
0.2885154449094053
0.2581258751941831
0.26999651811454717
0.27124837790127415
0.24938124362565225
0.16882333726405874
0.16897193463980864
0.2142369067033186
0.18348194532124817
0.1807749384366259
0.15941483944420248
0.21845836358104193
0.14762021217516014
0.19724109910913742
0.12472119497557341
0.09358763200509587
0.04992298685253438
0.2034803531071715
0.09847811822504213
0.12975999528516707
0.07854339750809373
0.10668706974032902
0.11556140863561565
0.004316848961193654
0.06821611567286391
0.05082549563565069
-0.06790237565038094
-0.052333355850685784
0.001547873868408399
-0.06736950619283878
-0.14605544489265132
-0.07290603880307965
-0.012614159678328893
-0.17951848458576022
-0.13781519875704645
-0.09180498787060713
-0.272878354974981
-0.168326725589319
-0.2696251136363517
-0.10554700634676237
0.0047785416748103715
0.038365973225874164
0.15684203547511125
0.3544230821636511
0.576850756489047
0.6940537396347489
0.8064133274771186
1.0226853854924602
1.15694510335093
1.104450140261942
0.9687911935121345
0.8930505253405389
0.620031965130237
0.41266616743181145
0.3008423924735039
0.022052696650675295
-0.15824592016484523
-0.10520870622078898
-0.2925445353964427
-0.26965488941528803
-0.33751382977676647
-0.2727891892170805
-0.16711877746610698
-0.2626557500170919
-0.09655786456673605
-0.1552470278838707
-0.10009850404188295
-0.11585676031149703
-0.018352284881076514
0.002435891735798168
-0.08196391957681759
-0.0857086622557385
-0.12065720325644018
-0.02500282874677129
0.04047022192482267
-0.11178020130284062
-0.04297826493436348
-0.024645929309596117
0.05121010938313447
0.053619033732611614
0.03175425372967282
0.02446461277744264
0.01304245958599045
0.03204050297026917
0.007605536060291539
0.1209855737491625
0.09028676077773969
0.022006972920596543
0.05200385842809195
0.07119416486875682
0.21084515532350118
0.1323408098431822
0.16617072676569122
0.19207073050919166
0.16091445019675682
0.14772361304604636
0.23870448282488294
0.34059706473805484
0.24376296146228082
0.22938630514864083
0.37916290627203425
0.3092412294546123
0.3243624210880429
0.3360657797969483
0.42870362940724566
0.325510254249841
0.41859617263461485
0.3080951947215568
0.349628241837208
0.3590118928726927
0.34828880717081584
0.293850256758781
0.39603029816622215
0.4094328438422938
0.4138927804335251
0.26162950425642506
0.3375546175180302
0.3175986765376889
0.4072571840953107
0.2489643226034518
0.2781325262792711
0.257037505938094
0.2411864476395447
0.22661790291538048
0.20760918270158796
0.2861385483601142
0.18498503876242484
0.2209161198940363
0.13624282709003305
0.06579096804042504
0.07496421543108969
0.11030159289388487
0.02396869686607058
0.14607011736224224
-0.0037702530459534644
-0.011260992161190135
0.11766198114433231
0.08252285138839745
-0.064608796470767
0.033671903531902914
-0.10549911985788628
0.038649172910089125
-0.0703185373107458
-0.11687327274981832
-0.058488348057648645
0.030061638811028704
-0.06622098329953784
-0.12468635508689901
0.007357225302073334
-0.012890868687481405
-0.009095522689410926
-0.1419355428500632
-0.05160099395764473
-0.11124906342705329
-0.10248349710284411
-0.08623519954943373
-0.10978536202841224
-0.1508008970466519
-0.030566793042592376
-0.17499746187521753
-0.045296059118789034
-0.1000038301492027
-0.09113069349952604
-0.02336384158647499
-0.07031885308526067
-0.17974535054432744
-0.13742469641510055
-0.09397657762434013
-0.14562787383550838
-0.13358424566482807
-0.08279100527287826
-0.174513490179649
-0.07146099107901803
-0.03760208981391428
-0.04175524918805873
-0.13794457623068704
-0.1164084812954593
-0.10203131366041733
-0.16194138319589807
-0.021200502880431862
-0.0305958594398216
-0.1486542553742029
-0.0694324058050337
-0.06498041318402728
-0.049917540413380646
-0.11966917284002304
-0.07285949292688979
0.008276575377050718
-0.015589687239239022
-0.07606697783044869
-0.060702472548914886
-0.1797044851321471
-0.13249652219590025
-0.015984680653714792
-0.05460142129367522
-0.1776969673192782
-0.1701090775153281
-0.17836850321342862
-0.0553540481825103
-0.004495118348927879
-0.005200673289349839
-0.12661377920507788
-0.1321386212244005
-0.15291060897872777
-0.06121986506825476
-0.1509212878411418
-0.03714481856140964
-0.02210912088941168
-0.03841153970971468
-0.004053856515810375
-0.15083869474307984
-0.0017962750497314134
-0.09771269407407204
-0.04518377153586793
-0.06921780726447128
-0.0035795814381344576
-0.10044124308210134
-0.16123500939176705
-0.16365528244090233
-0.12811060584322637
-0.09242145482318928
-0.017179715835138373
-0.0759051546235117
-0.09027517365348217
-0.07604803492972004
-0.08157707143012534
-0.05888005112658692
0.01198940382931625
-0.13270943889082784
-0.002311222804702792
-0.014502778133294543
-0.13085414069729195
-0.13462481602243698
-0.023939512997945223
-0.12540752163419422
-0.0030420445338103057
-0.09745819030012003
-0.07236088050065326
-0.07383629850404952
0.035270974049365675
0.0692940961122531
0.03975878503753801
-0.02451918866210688
-0.021453927424958052
0.002973756780532799
0.043597391476118026
0.1269776740270805
0.17305249777836673
0.19040569536738888
0.12134376790328692
0.10002262523839571
0.11754150492029997
0.1791481593104577
0.1390619676773654
0.22431286375413523
0.2786634189200868
0.17814509998146483
0.24506848225165925
0.12501815701659258
0.17146689716618027
0.24466466551939048
0.23536817685502948
0.13774022343844639
0.15252942751695264
0.1496917882534669
0.13808156676461583
0.0525573309209401
-0.024702166867195605
0.10139277810710419
-0.036690400553552896
-0.043376919893437435
0.061012046810702894
0.07393166753081223
0.016126412005557235
-0.0339713737305176
0.02489897812258124
0.03961878141929946
-0.15243898671529038
0.0010191902101361755
-0.03591825129890943
-0.057897709783187076
-0.19755177041765684
-0.15415964451810138
-0.11434413248791667
-0.18099846846004847
-0.2273781228893414
-0.18324684149127293
-0.2579605879475394
-0.2064286542162414
-0.05217875339884552
0.08790937516764251
0.1993755640284846
0.37795873626457444
0.6715276104211094
0.8319946324792343
1.0469765517766532
0.9899541882188837
1.1129163994912439
0.9656608255666295
0.805754398529037
0.6988435917992423
0.47442816058598997
0.2144785155048234
0.008218181933499775
-0.114312111493472
-0.12433393159099662
-0.25696523303002006
-0.3124017187667829
-0.29161613692853916
-0.3491704426396887
-0.34795334703722347
-0.19638274949894868
-0.2332294854269803
-0.07668446777141759
-0.2293580572811706
-0.07654174131932039
-0.12543774994804543
-0.11964427981016897
-0.019517842064607945
-0.13122087681585265
0.039405593542516715
-0.09537197667528288
-0.13568248403532412
-0.03158083395569875
-0.056001610239218944
0.04059636484764796
0.03119790279932161
0.024703005812750235
0.08202520530367358
-0.06273880751592523
-0.011668903441483601
0.11178903606146741
-0.019894020008129343
0.1298646472643064
0.08161405549802495
-0.002853645882399794
0.04720567561223324
0.05441234264806117
0.17439788111295162
0.04758773765630929
0.1993532307679826
0.16639611939689103
0.11268870438567083
0.23459672757290406
0.15056076270957713
0.33130317556514666
0.2139747043015115
0.343484716944194
0.2727549754096075
0.2834008720874612
0.280899765601671
0.35311065582577134
0.4018917901757209
0.45726374840409406
0.27444730873849066
0.3469874693772731
0.43742024363041054
0.3607910216880312
0.3952673411523099
0.4091064645897722
0.3731198942806125
0.3790957003116232
0.2740517089851405
0.40444225643487286
0.3656899600098197
0.2528834013186616
0.30169200677916463
0.2797179821403368
0.33860544998753417
0.2712154890262925
0.182090926805758
0.21151434694256022
0.23754882141833292
0.17700306269002142
0.2390608481709418
0.24058743280285894
0.0746507116327206
0.21065642683277938
0.11234908005718748
0.08560249521588267
0.015193064703733439
0.08224130514594247
0.14446403572588054
0.1146094035888639
-0.023910592702268932
0.014851789623408117
0.10188249889251534
0.020353660535408234
-0.07328545111608828
0.026379801424894343
0.05272277127123512
-0.09171905571109744
-0.013781714678945277
-0.037600658017550845
0.05089568584810067
-0.1211364769182168
0.026124273140298526
-0.02972802046540028
-0.005197735898777832
-0.0518501366809427
0.029581637108795272
-0.007593314681933548
-0.026886876609380862
-0.04650249241897934
-0.06875636830843421
0.0023489938761982326
-0.15879119117727486
-0.15065267609311334
-0.04372635604030447
-0.056673436454551515
0.028285658986894405
-0.11184916594203395
-0.10707417460145865
-0.12836897874956887
0.028581941063206884
-0.10089932328123485
0.021036753894105725
-0.12529673402468255
-0.1474053903146533
-0.032970433101357
-0.06403565725010668
0.002005072195838002
-0.05954676988021079
0.03477990675952525
0.04155899000402698
-0.10507837104984259
-0.1360334240218603
-0.13331834230211048
-0.08434077240838385
-0.07734002252398811
-0.10537216417851997
0.05126758203803522
-0.09164941542733197
-0.021416350782015325
-0.07769939260733201
0.047033648436695816
-0.037510418448873525
-0.13022748686545998
0.02106577377079588
-0.06853421763493756
-0.021596039993762015
-0.08249440147272487
-0.11212437726540107
-0.07793119643577587
-0.08184187662409781
0.01652427691768074
-0.026525985209930512
0.03778436714812247
0.013555014071188753
-0.09148239769040721
0.038960540966132745
-0.017854001474532987
-0.017197216595670816
0.025824717186857298
-0.09553496550312449
0.04606227481909163
-0.10308434151314834
0.04401198152823889
0.04510334844355009
-0.057868397848419774
-0.11566782076200446
-0.08011291626621657
-0.07387188671007641
-0.09857944065224875
0.027540341147313865
-0.023517441601095222
0.01977426380956617
-0.07666374758785777
0.04030959073193437
0.04722286307427004
-0.10250802241507456
-0.03378992151112932
0.015702010327944216
-0.006122681089497195
-0.08649307043738738
-0.006735024143074498
0.08043879494525114
0.025649633885496084
0.10388787081948582
0.017223648044169614
0.030834347988089983
0.05749201491821283
0.026247228489168505
0.09158580898469189
0.059050581839929214
0.08835203809804829
0.07567664116852073
0.04651674020097274
0.17223443672318003
0.061515911248509
0.14182664499789904
0.203889128750199
0.16656940366321285
0.2430460891529849
0.24035779631661075
0.23566316446921914
0.22694959576639803
0.3062699849581635
0.14529476606036945
0.2946918451035832
0.3039713085615708
0.34545864746894694
0.3234615148517052
0.2141771957353119
0.208986702379523
0.3028897020333963
0.292207749561462
0.2543946966772871
0.2791984145374319
0.30408125033104233
0.34302851557409786
0.20282221781413332
0.23771774721932584
0.24529822435236606
0.14705293804662353
0.21835267646662815
0.14602573870424493
0.12086373257653622
0.1555844333236041
0.19867720769425729
0.009476391567673534
0.08570501802695543
0.12392506856768094
0.10298343012037509
0.10045181283820045
0.11846140462656934
0.0877550215394799
-0.05605746735246275
0.02535952536107601
-0.0361930350525803
-0.03554176488962181
0.029358186401780353
-0.07035195523280913
-0.2133374183137622
-0.14899418741837153
-0.11290758155537503
-0.14375251224999697
-0.15128987701740038
-0.028643127055910968
0.08096504652828175
0.29138055456410267
0.3891257286551671
0.6086600858851321
0.7489770178325951
0.9361835787192142
1.064313313053142
1.2049334309674415
1.1135807286899044
0.9923809819033318
0.904367536449363
0.5936884073803232
0.456711657406963
0.15819209155889963
0.16451295225168472
-0.1026539033942945
-0.147983222329947
-0.2120765476887128
-0.33695066955251024
-0.299975871767606
-0.30016445100305217
-0.12285203926488787
-0.2238414844177091
-0.0664383091633725
-0.049722608805359676
-0.11473066343109646
-0.020976656354053026
-0.08432201913244508
0.026127611618301384
-0.056482134341116944
0.10075902700619374
0.022208038806915808
0.015608955555933557
0.11647496526804492
0.10818135621310458
-0.049281029355661574
0.14110740666793153
-0.017068357221572336
0.09689033833013554
-0.0024645744804041303
0.11152249154155859
0.09183786168935416
0.12861341709546034
0.03623569384490184
0.17080227163672382
0.10518857534984387
0.08866316074352089
0.2378932652130991
0.11146534469906441
0.13339668280483202
0.14452719504285574
0.1569768531743092
0.2928158561701284
0.21887803155990154
0.3112358577682836
0.2922216298142537
0.27463699759923926
0.27531735013428826
0.26206943993578524
0.29192863369497074
0.31932562207579285
0.45371582417153766
0.3234443725511564
0.38670260812194274
0.4020248451346373
0.40071866035846393
0.4048509628200841
0.4116863232173905
0.47108763089688344
0.4313879202808438
0.4315416266154107
0.4995676967160515
0.46323385543280426
0.5137395026049782
0.4353872079487627
0.43836714419386996
0.4558187539896118
0.4945832386251466
0.34357614456751717
0.45857257596080375
0.39600014072552114
0.3564242826445694
0.38397501756679514
0.4122185262874045
0.4011582430227791
0.3181887737852829
0.33929463245399827
0.3085569873800227
0.22122568732771997
0.2679877813483326
0.17833755174795513
0.1254164849769866
0.27539576358239237
0.12714756729949236
0.07497953736301484
0.07342525400116465
0.17919524192023256
0.19033403684475647
0.055347586694628755
0.08652056445280817
-0.0074532269853395255
0.09608117983342086
0.1502549919881066
-9.95702241988597E-4
0.11493226723408077
-0.010357145505496004
0.11193386111017896
0.003725605546149178
0.03642829391903661
-0.0313124118142363
-0.031644277437898494
-0.007586488006799553
-0.020474291068724462
0.0759812719693625
-0.04275649595616321
-0.05330018039137451
-0.06183740449962542
0.0033571435737856925
0.013080280398663702
-0.005354405301519505
-0.02231898790549929
0.03868336196118557
-0.01777301199717285
-0.0214578933484206
0.03127029216198807
0.022367292623342996
-0.05899837491201525
-0.052201030625562764
0.004755536551929928
0.08003753683193718
-0.032585092728552104
-0.06380948449041428
0.05021316262723119
-0.0013801692456774772
0.019286074840722922
0.054315315571863344
0.10042206459844723
-0.06444157276517848
-0.0766063996145996
-0.06641406096849145
0.025976424373977736
-0.07610431318302936
-0.06011161372463983
-0.005885629916034387
0.03897777408506921
0.07105297096790171
-0.024665733781896182
0.08381296482918552
0.02469525943352129
0.0329627302302097
0.012785200395142438
0.11449426032793926
0.10301271173505328
-0.01605647172722649
-0.045321613908450395
-0.04898446323976778
-0.04087004128087328
0.023590922744947097
-0.04920304126588354
0.03236807744528407
0.0982855271302142
0.05241599088845385
0.05256557527070237
0.10225091753915931
0.1122937120983803
0.12319081110694119
0.03913207670492928
0.03538719456706092
0.05897782869315703
-0.054683319485001936
0.12774896323784768
-0.06278494851553638
0.08317012564099815
-0.05971337650333902
0.12370544761480368
-0.013216313886218647
-0.043064622697622845
0.12320863834088726
0.11055379342176878
0.05591358489256896
0.09459579749232208
3.0124650386459395E-5
0.06599916436323726
-0.05078972007417419
0.13546398774210744
-0.03261340674949502
0.09920784765856017
-0.04342530003729948
0.04685200001682747
0.043643668952322634
-0.018781759186123362
0.06587187820665416
0.04436790838190381
0.11231428969736168
0.05385030007614853
0.026917080904850253
0.13059568616514725
0.07265733185817477
-0.0072768582717772645
0.05827153534677586
0.03648598662048198
0.14445092117579444
0.13699202534419905
0.1665902381886999
0.23783114864626892
0.22870199022496698
0.12006916767086043
0.12087089885000557
0.17271871810424838
0.20369587349245877
0.15523725336235245
0.3400421719263003
0.277568395805211
0.3013481205399495
0.4048912965635556
0.3665894400312234
0.3080307656502444
0.3213646223322695
0.4053291011587639
0.30656238472440256
0.34721230199790026
0.2771450775112472
0.22330297751835465
0.2898342192152366
0.2098918218869921
0.17953497927806436
0.2593674203536687
0.19325285291530575
0.27456674061321573
0.2493132310577401
0.22037750329972136
0.13302891159847963
0.11773694157474407
0.203050891387277
0.19264277023097345
0.13196779296318906
0.02488941771734063
0.13056220743156183
0.07115175369804258
0.05450171973560963
0.051625216390121166
0.1209505317721252
-0.03772680939364313
0.056538272430150395
0.010000868926345798
-0.1287894458046627
-0.0620444938586153
-0.11643372148250879
-0.09877609887480235
-0.10092376106594694
-0.15930379262772434
-0.1115416986603363
-0.11684167313393651
0.12125469425585939
0.25938665332294847
0.31480543107794323
0.6277376148278083
0.6682793623843486
1.0271068830606611
1.129946588399917
1.1352392017850435
1.2345314434043866
1.1751778353580333
1.0180476482594303
0.7986341957975034
0.5436114474952318
0.4114947773389589
0.2176425940892259
0.06019994061457937
-0.17151961345675545
-0.2547652298294144
-0.15151029001816074
-0.19769239740416109
-0.16451888391363378
-0.12011934948533512
-0.10904108185086273
-0.11507547175339229
0.048479703743113
0.028965248605869243
0.015755504609162273
0.07537948117894228
0.11726499940834337
0.10265921138895308
0.0038981276355625483
-0.03770317840571413
0.09199224703860408
0.1501013069493003
0.06287641065271878
0.06620817888548573
-0.010896163073328358
0.012606500343741167
0.06112392408157133
0.018896620831158673
0.1678712702690961
0.20399457167907697
0.16881649741948607
0.07738185244232336
0.15811357721660702
0.12003166188443362
0.28271766148881766
0.2305911505337817
0.18392127121549542
0.26438435423536943
0.29924158715737653
0.18723291801691028
0.22604919749350463
0.28204236874950045
0.25900507479856627
0.38490857606051426
0.34467188284343
0.40025184931887337
0.426822758903204
0.3684300631360676
0.4673767138462607
0.3506147852972157
0.3865845048129791
0.4162172612737376
0.3761957222494665
0.3781542069213707
0.5395085447820092
0.5410441246759985
0.4856288489335678
0.4622144128307373
0.38991514217147605
0.48141496654153115
0.48713468256806464
0.5188438631895941
0.5160109262894382
0.38332142595628704
0.41446722996074437
0.49549450317205485
0.3602657520806901
0.40323427953353785
0.4231459041845769
0.2808084279160153
0.24135934738962916
0.24326861364831337
0.3344304246314481
0.24992695353814115
0.24391562186096805
0.27121581622677604
0.1517230793252787
0.28318257099458577
0.17876565873539446
0.14999013169622225
0.22673534809898568
0.11036169547150584
0.16037059532891534
0.1258067457078808
0.011554053184147414
0.08480170861407785
0.03236843396533977
0.1413159501740628
0.08016707319572916
0.06168462982488532
0.06822874790479092
-0.055678692537139446
-0.026690577407169937
-0.019616109738642362
-0.04974423060308935
0.0857027631764176
0.04866771125501024
-0.02820305861095367
-0.059325297068521944
0.009331629209199678
-6.722487324879118E-4
-6.62146775633355E-5
-0.011539136783657523
-0.08906692577400066
-0.09805335162407146
0.03484658980424435
-0.11053326147657971
0.03197173560059934
-0.07233161796549523
0.007682805475913636
0.06989796333259957
0.002669718452917691
-0.0077300627614743656
0.07959676680037998
0.03275991851361146
0.016118361773560123
-0.0015861444073767654
-0.048342160676696416
-0.06211228865766434
0.055765025342427874
0.04498010211648197
0.052217521703441835
0.04065327277565139
0.00845732415025953
0.008435461493610453
0.024191037741075533
-0.05628074957646968
-0.01529323938566567
-0.07089987136750303
0.06416417726262255
-0.06296314694226454
-0.08923974313551339
-0.04822402526559723
-0.020952044688991988
-0.04918922153459955
0.02955005456581477
-0.030278200015820312
-0.030543680630060757
7.019692276673435E-4
-0.0052856490492612755
-0.0013482752390150503
0.08052323751772868
0.022327577716494275
0.08349789620666953
0.04852466690213428
-0.06302994816236109
0.03660257107807033
0.042604478550847015
0.06272615356505438
0.033598578652132116
0.02076916167211207
-0.05317767596001055
0.024375456557234526
0.02673485694429875
-0.0075674929159698975
-0.06545990250056494
-0.09291392225162114
0.08314561323035838
0.007517768871208166
-0.011191377790703495
0.07850882161546108
-0.026358728976116984
-0.044530689670236226
-0.01537052245479883
-0.048424343712486904
-0.03721448484114949
0.016533911077446894
-0.03758595083011316
0.04475786872748936
-0.06716320636979131
0.04755474955140319
-0.061251159581722905
-0.019379964274802385
0.08602049952686405
-0.0013857337697713804
0.028034719459401856
0.006699989884801484
-0.07659825431822896
-0.04100770670688685
-0.0644514917772622
-0.004270326559518712
0.06038957139576476
0.08097727143936906
-0.0043077405146031665
0.0032286463816039238
-0.012424306052191414
0.08751718624870189
0.14269363403402258
0.05220334844118364
0.028454268597583765
0.19418694266752973
0.18116855311281066
0.20830147516402234
0.1560230897426176
0.22541588790095118
0.17624509888807185
0.15052248505434468
0.18715507784461496
0.2882407944804308
0.25653659215649316
0.2520864218582952
0.26685193652071104
0.29966842621508183
0.2602925906137225
0.32888601241639703
0.2478329968163034
0.1823387226094984
0.14667405804155043
0.23108158912047913
0.26030381554019416
0.0910663376789814
0.19446692314062214
0.09668299149927675
0.07337321736908953
0.15975289726674152
0.18184155802248314
0.07935949595712223
0.07359365357439798
-0.04479220136737966
0.04990020758001144
0.019374833661845857
-0.04162437186849717
-0.008613242518188369
-0.11027905704758555
-0.023212444623946827
-0.057786465570483656
-0.05297343505306373
-0.039381797121378244
-0.1516807493005159
-0.22071870349433353
-0.2056449443978698
-0.25167611837376824
-0.2912423135436828
-0.1392971015277726
-0.13937926763595254
-0.044849165656605364
0.06310949662525257
0.03743979615801675
0.185873139833358
0.4804595784861238
0.590481382949747
0.8794395623652659
1.0348829414966911
1.095630053769959
1.0225151573073743
1.0284798037700664
0.8201780609704609
0.6982525424730746
0.5249004071281493
0.23610940767080063
0.08668319074532846
0.033392763211685744
-0.09869816737443042
-0.2614904459508728
-0.32875263012844147
-0.38402196069429306
-0.19278502390505342
-0.2961860543730993
-0.13884562315393204
-0.07545134846998545
-0.1397436309072975
-0.13267463407183275
-0.017015238994899096
0.03514256214252996
0.06283873330202704
0.06304241020134566
-0.10476615882651465
0.061886402985808955
-0.0243064357586681
-0.09381326709710079
0.0275527540833462
-0.08660490131172036
0.0014159789531507424
0.07232744898151014
-0.06299374123115144
-0.0555070033631221
0.10794258342958127
0.09040244388775387
-0.010209106823917152
0.13577599531026563
0.1601577155643604
0.09549063773685479
0.03472802350119446
0.214550341401188
0.13223632270560676
0.24306100568154576
0.10787241095953701
0.2455924964028209
0.2120120499006737
0.23551204068789755
0.16356890982960404
0.2580152758607612
0.1890265241432614
0.3483941439557124
0.2645591065827007
0.4160420270946921
0.386576125523398
0.408217643602224
0.42142055158950475
0.2952075251346372
0.36786038912035474
0.4044946992813926
0.3366302848473055
0.4008962274143879
0.40220907466461864
0.326561893132631
0.3662691745548791
0.3200513131977751
0.3774168749587017
0.3678109747943181
0.24475200962867746
0.2853921251722852
0.27722085761849474
0.3067994963193852
0.2700748606504584
0.2731987934673653
0.17902701183245534
0.2199503896005279
0.30647677366031856
0.09943739207693665
0.21667079715539472
0.08831399645101114
0.10560492930226412
0.15417535739865812
0.08363217420505101
0.11763590086633417
0.016869465624871335
0.010960360621693588
0.10949396866859216
0.13092192879133263
0.06851651730927849
0.023738786385448195
-0.03271162721592952
-0.02272177068343563
-0.06200308633112355
-0.015525982888701639
-0.07452838302556698
0.0017217896451890008
6.84680414236874E-4
-0.12155146463694635
-0.10549516802416216
-0.11661621346025461
-0.1244780687692029
-0.1161207030818352
-0.1238723669969227
-0.023386010773142563
-0.09170858462732272
-0.014037058988161218
-0.001366140583382247
-0.15792564209784468
-0.07347188868100145
-0.08465450143703054
0.0022516687948601066
-0.04458142323410517
-0.11204756183654743
-0.013597365728787503
0.013629117291442797
-0.010135842826513322
-0.061736109950818366
-0.15780855300321717
-0.053595907107451456
-0.1024578298865569
-0.07101785501098465
-0.04729944971176176
-0.14583129270735573
-0.16086986446260443
-0.05315946178012114
-0.05091392029263811
-0.17449076268099015
-0.0018336175408461275
-0.12800102177320907
-0.006278090958324739
-0.15308133031541965
-0.020161422694124062
-0.10266474414884982
-0.02687486590783364
-0.083888875841603
-0.06593373356765922
-0.14608607162169165
-0.1640824420657051
-0.010061449211685669
-0.1398915608582434
-0.14521199650693795
-0.060119951345137854
0.00443897721005386
0.026330854636422596
-0.09548718878591014
-0.025061609055787415
-0.14852074130576032
-0.05086990076994871
-0.09039547477178649
-0.020948288330664297
-0.11371055363565952
0.014058675382515429
-0.15307344001904377
-0.07206346500300616
-0.12275698271267252
-0.12510778230328712
-0.015111866741909473
-0.01984635680185249
-0.05448976001899956
-0.08253288867225421
-0.12903058331837786
-0.08523526291685837
-0.034077601575443386
-0.1479543882644391
-0.02360505128698573
0.022966017039777797
0.010666308099914784
-0.058198818756479406
-0.14496271524849813
-0.11862530438486457
-0.07396051230630396
-0.11909513049847656
-0.10138022197171137
-0.12242136233512084
-0.13854922711184978
0.025920484131292998
-0.14846318190937535
0.010572974651326332
0.012338498138792668
0.004502272653075734
-0.07451841084463431
-0.04595061203937158
0.06717260956552269
0.035766491895380885
0.00918583529209295
-0.004798368762386818
0.09635505245015777
0.08370385866264664
-0.03884474533763624
0.0011405478982435269
0.03819101682252039
0.07858519721585785
0.1697992832886653
0.12435922885740032
0.09385740523380631
0.06053603788275602
0.2279321089085761
0.25427747776993004
0.15191788094441214
0.23531001493641315
0.24725067679628263
0.11712874223277595
0.22547685926595837
0.12350874946276187
0.1918114450628903
0.28250262192698755
0.20335120936035866
0.20754596316007576
0.14766344986131907
0.10273277455356364
0.07570839405113339
0.04033985652563804
0.07571633988274161
0.023535385516984933
0.1515870063078552
0.09397762498935924
0.006857884393658593
0.025233986330474134
0.02875003158427516
0.02660814245511376
-0.026784431204207895
-0.02815061693671266
0.02664794976887247
-0.11667059768177726
-0.06391854491554293
-0.10150913972858489
-0.02471038164130896
-0.07903149416076599
-0.15150852463608544
-0.15689445088747855
-0.18220106994692198
-0.15118591274662457
-0.3015645510335455
-0.12750514065934587
-0.08815348889536129
-0.08409632045775972
-0.06277849753393532
0.1505870397397659
0.23102991701723535
0.5409312141956388
0.6492508343939614
0.8052872943413873
0.9450203865555109
0.9736876866816777
0.9180523067587729
0.8715427999735835
0.7972414804803811
0.6015488426215682
0.3784392938830584
0.20147205032200705
-0.04983140170740419
-0.12438630827895436
-0.303770946468722
-0.33199934157019084
-0.27663794538995234
-0.3552219166508709
-0.3935583543038297
-0.2428932286390981
-0.19332798550739458
-0.19241713176326744
-0.23271942830176828
-0.15909392334662895
-0.11588033403586952
-0.01846436865947851
-0.1638829561225834
-0.11913662566748084
-0.015347651660784778
-0.09521255997865058
-0.13621638064013425
-0.09614817079025263
-0.0930035721187592
-0.021513706636514807
-0.1028894277012221
-0.06434621716792521
-0.027793147614132097
-0.01707908654435821
-0.0535149724127467
-0.02431054633156922
0.03817865910948058
0.09237626123240866
0.03861350229207777
0.15484099744423002
-0.010336313640673528
0.06260432066100105
0.12372409329121885
0.17158531685556272
0.08882435079599518
0.11753035092656172
0.152370834714772
0.26167831706786404
0.17193110117455365
0.1988778744855788
0.26342816432314564
0.28096286998408776
0.3542041531288697
0.1980243451137313
0.409133486078517
0.28733398304801083
0.2871156054845837
0.2712558935385343
0.2940340645685605
0.45491950623992944
0.3213596417766977
0.40187880676159105
0.3309380440519968
0.4194545168088216
0.2689643047090473
0.3853955417938299
0.33983062896226807
0.41388805074930746
0.28720818250093716
0.41503270955453864
0.3846522637591967
0.3094852740348708
0.25045175906380523
0.3171246232182835
0.34132947918726086
0.30698618833608426
0.1280293952489795
0.21234922136300147
0.24358375390496145
0.2667596580696284
0.07313199725681901
0.047029538115226144
0.11279370729714674
0.060703343561428855
0.15928051117737418
0.07104981161386069
0.11105422577029259
0.08433042315812406
-0.02212135090333324
-0.03668086362670249
0.017133017082863668
0.04015502741393772
-0.03727562699419915
-0.06157161309732724
0.053766047972928374
-0.08732499231065505
-0.09362151047200956
-0.025531574354063346
-0.02375252192226518
-0.047759921869582465
-0.08411886564837433
-0.06418383699573585
0.021150348405347366
-0.08452500837444313
-0.02687054234310575
0.009951302666282968
-0.15988054785810518
-0.05658754997476963
-0.004075595437703958
-0.1367201303496111
0.022081529992354576
-0.1665657689171285
-0.04075215788056409
-0.03177160628058557
0.018206498012236075
-0.0858053010493455
-0.1565552642738277
-0.03693596606742062
0.014989829688932976
-0.11218021395510265
-0.10719588812646841
-0.10962542572233047
-0.05353299630476614
-0.08976257740950232
-0.13966058678946874
-0.14708217638624466
-0.05769680377103873
-0.07049451742387966
-0.12837002972485917
0.039044287840413916
-0.13019520870898432
0.006133832611814424
-0.00893798058256997
-0.06340786335266277
-0.09875801482517146
-0.1213938560024724
-0.14882797446981327
-0.11750058832516753
-0.11644701255037758
-0.05573532310089167
-0.02010149924504736
0.016677325768414214
0.0063556892497170225
-0.07201140619160727
-0.0062337766899607655
0.029943696581401683
0.04764484324872535
-0.10434301289327784
0.005874807101755863
-0.1095497854761488
0.004549122896348172
-0.09369484291443128
-0.03462694954503785
-0.03068455777770033
-0.04128768909892633
-0.013465653418941848
0.006629422531983044
0.00951384181614328
0.041633895608144414
0.03033269475730785
0.06952437139921523
-0.00406465626957234
0.005392284904163956
0.057269309997453055
0.0341000036947233
-0.11867340420760189
0.0740373510498658
-0.1096802347294486
-0.09026027698445471
-0.08435036705890238
0.06421903791266723
-0.06385944270038368
0.007144658271260953
0.004510235477686666
-0.10259699948324574
-0.08118686460865636
0.03941978112233796
-0.10492881012016458
-0.03732127129735534
0.084419381433192
0.026025957468069683
0.02778600069108247
0.03404913204500074
0.08239737039856546
0.043152568316070054
0.06118725226867111
-5.128266244674995E-5
0.1273541198309222
0.13112492126218045
0.049051667838085525
0.026436753550222826
0.09490772836468062
0.11336657338701656
0.07598792882190894
0.09083802989658682
0.15339400197468528
0.1363959452093343
0.07090290352087224
0.19600479758264122
0.26059561060012515
0.1860462759943094
0.14045953821693555
0.19187827589743303
0.1641045972470575
0.26119524524752036
0.3135023090225726
0.19475320833685503
0.22461376676953393
0.19251598874678172
0.2454325368816976
0.24769738682440784
0.207940086571128
0.33947649718135575
0.14718706530210718
0.28805571407652686
0.22998463120191162
0.0954907619077725
0.11758407525952325
0.23319440998454993
0.21976859764550416
0.1148554892784757
0.13358511403901377
0.15162952842188693
0.10350579039513044
-0.02528010989347418
0.1307283297621309
0.08660551340965231
0.11465361231194596
0.023529914676219288
-0.07572819366911564
-0.09973049421669167
-0.0603734614454405
0.03154225740130709
-0.08025915987379337
-0.11143488179028924
-0.030420766184345582
-0.0921164823822615
-0.06401042381283768
-0.08213813996366695
0.016773050895079925
0.046129240250384035
0.18407292739839254
0.2752121047048668
0.4239249632420623
0.5871908077340743
0.8682321325729817
0.9273286291398762
1.1123593957639977
1.1990228010615431
1.1055201686954323
1.0599374291718218
0.8639737664713004
0.5841304457916848
0.44823310869020333
0.17280683857045662
0.025876047503254274
-0.08165842334123387
-0.11428767683284187
-0.3360776624685058
-0.2931255546478037
-0.347659938318417
-0.2911303594293687
-0.2613338693856634
-0.1892151292353543
-0.1210482451518434
-0.1521038390048508
-0.034558362648805796
-0.10029202596399883
0.06470802146582068
0.028054260111136542
0.06218440085006423
0.03314686095037564
0.01848826381186033
-0.02085777185561597
-0.04087219790834878
0.037344812803725855
0.0795301492043052
0.003545833990752187
-0.0309312940270767
0.07389163444577265
-0.0055461420545309045
0.10310469384895367
-0.007581656216169991
0.1698263204628243
0.14493100666883896
0.19746335742218515
0.14854444069820683
0.03834351538436981
0.0962021251258581
0.2369216758101682
0.2517127480280982
0.15207950174930585
0.27521985192278287
0.27985263279502565
0.19022355160084609
0.31469649217753504
0.18483432359484026
0.34206837650733013
0.21905930940839147
0.42456936053969263
0.2797347497204148
0.3054186871021097
0.4545507651067949
0.4181100479644149
0.35898604737778106
0.4899444202009947
0.4055673533637942
0.4027048957202629
0.46365288042305003
0.5110458997973719
0.4891387164861707
0.5355231577442485
0.4585319407440103
0.3634072430951648
0.5377995064808778
0.4170755179814359
0.5222418154022291
0.4002793204789356
0.49742133114601184
0.43628642044113514
0.43910553888861154
0.296826724560611
0.3367535067333955
0.3279518717317275
0.29544655156575356
0.3463332754548173
0.25628542152925243
0.3067987566807673
0.33342252936143457
0.29794269778114535
0.20130170022934332
0.10691492343067435
0.25744241804623724
0.21947805489401262
0.20406149787663105
0.18422178363654512
0.1954312797351686
0.10726402903301385
0.04737866141404483
-0.012703594029263257
0.11146752052664544
0.02587614819036066
0.008334660174924853
0.13327922532884495
0.016941834855749925
-0.029545655116680038
-0.0285459751698017
0.028560706963965888
-0.0039212455826206465
0.07896262447345365
0.044686009527695573
0.08939341636775136
-0.05222426499276981
0.04655104355839094
-0.05964094613844604
0.08830794945977984
0.018273046991172506
0.08226851464905516
-0.047675948883656165
0.036938934680070735
0.08470247665493519
0.0517635891522481
0.07558365791937177
-0.05086752776779723
-0.09377316405243047
-0.054066284414661304
-0.0320147062006569
-0.0438794852671146
-0.06885820341384069
0.007479505303717715
-0.02522167415509007
-0.09063888369233225
0.08722671411242873
0.06028534330905984
-0.10342812382701251
-0.011402971565044995
-0.028385303149314346
0.00804386734480983
0.0907648924175714
-0.05450085393711095
0.07868510781241457
0.020052589675043753
0.0066091189077383435
-0.09217101756876489
0.07525951612951948
0.08344642776906211
-0.0223991150704161
0.06818260828618634
0.030594913456392994
0.10188987039865043
-0.01602948932745092
0.07141680555825371
0.010142859609763688
-0.06739107038038533
-0.05455997892161249
-0.0486900955841494
-0.0762070927561817
0.07112772041270601
0.027810427415619333
0.02932124259092883
0.07195064455162667
0.025574471757621675
0.010457526980775567
0.07064906339047963
0.030427916240189312
0.1135686900796946
-0.010780422335804354
0.07953838123277887
0.047673959585362226
0.04785663429305574
-0.02422836315800469
-0.024180197846653345
0.024540179448610165
0.08194377151025517
0.11948943656489118
-0.07713315979102908
0.004700187496946017
-0.07452914775264485
0.10164219219482555
0.07695086193319157
-0.06741261404851645
0.08712577019458029
0.07234148975498558
-0.07120630206273723
-0.035901275699771126
-0.0226852826661885
-0.03301632655407505
-0.05284510770322742
0.02045844150017031
-0.05711187850440484
0.07201826714429539
0.03408422586923328
0.11578581133177862
0.09415976502692555
0.012948090725273032
0.05177975387239316
0.08766399592563569
0.12182962683626906
0.042881379732585254
-0.007268209481557902
0.10540437704958851
0.12711015664774344
0.1157027102815883
0.08185569689753083
0.12391052569773964
0.15061597476412783
0.20189267773406544
0.0619753695473611
0.16174606482415788
0.160073392159343
0.16762830549131885
0.2223977459055831
0.2130756296218359
0.2386201354197253
0.2977658580825892
0.21399121485365694
0.32354711648746126
0.4051195882270167
0.24996497755648017
0.38385162969233355
0.3347577009257232
0.3789853215255911
0.28849696795297286
0.29391669709063345
0.21958035115845032
0.312923170993681
0.2620679625806182
0.25966087868261617
0.2376292042253365
0.17507815091939527
0.18830555673852756
0.13753271630174416
0.151264111628659
0.09479088226479376
0.06232869596241691
0.14667851136876708
0.055664326437345
0.14652730433543207
0.13456996495339374
0.15770514411088632
0.1487585972344459
0.07438077928889078
0.010393898768817751
-0.0030481422222555024
0.0037034706917224297
-0.08265998246775648
0.0014336183805748089
-0.06195940572659967
-0.10111175843126424
-0.1710666755198348
-0.18431727429091854
-0.05415492552972678
-0.03878935824622441
-0.11310505203653964
-0.16058530498995144
-0.031904652747703134
0.16384778076941836
0.3612867581304884
0.5332277934848898
0.7571596210094376
0.754713638869408
1.0811139476962028
1.1233755723851637
1.1852869448237286
1.2395208378308606
1.1238998525475257
0.8892150972442444
0.6769756009653276
0.4152022415237824
0.23822624034850576
0.05093741992101901
-0.031068895511133877
-0.05204023368271456
-0.1707030717696393
-0.2845557819921946
-0.15819179036311498
-0.3088358572678921
-0.21734247173926233
-0.19840133490650408
-0.1251873811691072
-0.0631043973970266
-0.08927619989966025
-0.02949100380456651
-0.01223199329038277
-0.02597517826692313
0.10511355448587562
-0.04673901651184323
0.06974823294369566
0.05106709580405009
0.03142703597960025
0.06605201564910654
0.1339002233015139
0.1254287784620935
0.05637626738744472
0.1187207695425398
0.12436210274319771
0.13998239905287638
0.1503232489276763
0.027990123856916557
0.07783266067568134
0.1682793060868512
0.18221293585087803
0.09699615511618787
0.2842930659804351
0.20571000728471073
0.16165849181055258
0.2522285067605733
0.3282382319295952
0.32192923629224834
0.36104609077107264
0.3666258746702957
0.39099244211135104
0.3741591819229378
0.2572104492599129
0.4452996352650967
0.42672732278699294
0.4306488558295439
0.3180837983655905
0.46663139802924425
0.3870779059908087
0.5261580731826514
0.4809890070300588
0.4282954529937458
0.5220675787335007
0.4000775509823984
0.5435504662902804
0.41340420071457373
0.38105416134232867
0.40905306980176076
0.5039399223524029
0.3493890035543268
0.4703709112438741
0.3384422337350779
0.4828874380986361
0.48188507778501144
0.4787469103790094
0.34262630298394436
0.2632784641802549
0.28735156136079587
0.3325429034643502
0.2915386184851003
0.28693963513949794
0.3067667421675797
0.25990417161492785
0.15575317286553303
0.1389487114330274
0.22517156637824604
0.07751522684398295
0.23719617116053998
0.13307027188696172
0.16120235536396374
0.010916501050711833
0.17653903457979575
0.1821561688131752
0.052907540642883576
-0.029791878762957136
0.04739604227427663
0.11107731326982506
0.12319839626477612
0.08611121498348986
0.07480573558608941
0.07545183099549443
-0.035096170553125
-0.08723874267725874
0.07585205048915455
0.04147109198644336
-0.0468228533518828
-0.04734454552452382
-0.07289590571409965
-0.098517717970125
-0.006864785181981402
0.025574553962531027
-0.0756429010680041
-0.1203849359984253
-0.03765875981476703
0.02920779831503724
0.03511480316314119
-0.11218507150276402
0.05790970008139083
-0.09783946966088579
-0.06833286511065201
0.014042592601159566
-0.06850281889039811
-0.10996757561961935
-0.08514317906244756
-0.019808253820063116
-0.05770284550172222
-0.0439702923694034
-0.11739691778153179
-0.09638563092902622
-0.007742861693651435
-0.021392484702956283
-0.005589924136054844
-0.04434962812512898
-0.12029309907226825
-0.06812668376818962
-0.02408154628967968
-0.028210603677041268
-0.020539162554373804
0.05197702594550224
0.02798035905679052
-0.10505819029459113
0.040332546274454456
0.05660777726096025
-0.07900220965283183
-0.03505396195466526
-0.011981196539147875
0.055813342342333525
-0.025615041951204308
0.044102553826919286
-0.1058404785858469
-0.11841495619571178
-0.007696013893218334
-0.06424296080361183
-0.10275184420874117
0.020881453335771655
-0.06652864796115018
0.03527453261657692
-0.036582942240470415
-0.06867921502127619
-0.027639773918001508
0.029232499443431564
-0.05942022402637936
-0.033151621107222085
-0.09477134628101394
-0.09175256968946481
0.042590856517778636
0.025807787999902777
0.06517809251079482
0.011874383353358699
0.04338061871739106
0.03817070330804362
0.024279995941368683
0.036772530105438656
-0.055911024530981214
0.010931555700252359
0.07141856659960993
-0.06243162162789928
-0.005344956552564494
0.05518916171382818
0.06366608051682071
-9.46955951335083E-4
-0.07224756692649743
0.07448815633438846
-0.009586657243994434
-0.060973506989573656
0.042087094512493296
0.04096688667120451
-0.07333182855773554
-0.041235520265916495
-6.024786963345742E-4
-0.04322002975341752
0.013991894675613459
-0.036147239762432094
-0.053113211532887894
0.0279023382832395
0.04235542980307279
-0.0031141748046981527
0.16634151530125812
0.04772934517782093
0.12320982593398584
0.04977657548896337
0.09696457802751066
0.15707259551445246
0.1814954175315745
0.1797158526327102
0.12183778052204498
0.28329366969841674
0.3105093303427267
0.16987910532568062
0.17016795906571444
0.24780411585632978
0.18097785931138083
0.28111508520111556
0.29497145378865874
0.19822444767833547
0.24915399085876141
0.233184835210343
0.15191311984213024
0.11407340997332815
0.24051328357743768
0.16689587363748493
0.16507141809675435
0.06667759129407021
0.07502668055561063
0.15348739403053627
0.0472954416132
0.07278655685290865
-0.052748275902763875
0.08417583256500316
-0.02569882773765471
-0.07008445295869556
0.02785965037141255
-0.05646745088170331
-0.08054040499010004
0.008528609346084605
-0.05041462514279092
-0.06685506660909203
-0.0028185284722598847
-0.18162912769435574
-0.18994011944457972
-0.11321148422975243
-0.20163410182248692
-0.12901424470610912
-0.11955340581007305
-0.23002401789236476
-0.12700240468584353
-0.05978800328757289
0.18030945667105627
0.38125761006603487
0.3724304111703195
0.5850164969652628
0.7998300782952893
0.8972201644073672
1.0537956489579943
0.9972603833076216
0.9523643204198591
0.840442996716316
0.7639416266561261
0.4068248019559661
0.3553985855276587
0.09842619872840501
0.011496664090145048
-0.1133463682024226
-0.2520536939972425
-0.22857619500616458
-0.3079764968671036
-0.3415145066763232
-0.3543204816145901
-0.16957891881238815
-0.1576178583874145
-0.07969941813209283
-0.009505276302971516
-0.1020796159377328
0.037665759795604964
0.04576507833787674
-0.06819628326117218
0.06300698330909549
0.011909849738743997
-0.1198095669357623
0.03661523943640043
0.025279775209244015
0.044035726622135764
0.0019253604377155844
0.07536391895880629
0.053572961563515424
-0.020939731571799763
0.10650727851284539
0.053766711208115006
-0.046001550200521046
-0.04040105971852846
0.06038142676603555
0.046218251427702785
0.08570308835207444
0.1165938263076356
0.09134749474261772
0.0702482039481116
0.11422749455534922
0.11892331122853572
0.16304541352144442
0.12428758257267625
0.1513217308577698
0.23763954553513425
0.33758122075118996
0.1729154458825891
0.19724785064966585
0.24988977937924722
0.2474835283397584
0.3602568699877067
0.27793253934117357
0.35302686320166776
0.29801832238532827
0.42598630004473304
0.3899745703298473
0.4203055674018105
0.45526763183111607
0.28168031506837704
0.40985614143715876
0.28108106511356956
0.31627468907823675
0.27952883170206344
0.4500430051123473
0.43304035161743903
0.33099530395902177
0.2209686689424482
0.34886227294497973
0.3589516198463885
0.270851653671708
0.2247310212289185
0.16336796604334336
0.24616021713856812
0.20792410355982696
0.24577991276023103
0.2534318254747097
0.22481529157028735
0.12542562077281363
0.13331387953654153
0.1630826610105412
-0.013996366937658059
0.0743471366614988
0.06015852959043174
-0.02532323812122661
0.10591400400932904
0.0505604435133623
-0.07830666010326597
0.008763405721065133
0.011795887815680604
0.03928749081403332
-0.03571279346904625
0.04301832478352241
-0.08706810901741904
-0.025886149820053828
0.033174313286857424
-0.07508633364487419
-0.17185602662509936
-0.04382364952882299
-0.0778555180767717
-0.03834676930578712
-0.12926511651972283
-0.1308842692410381
-0.175741733478251
-0.07624086096444696
-0.010233521457835335
-0.03231401456344252
-0.10071585243874741
-0.11656582519934584
-0.031486399520171696
-0.004375643370824092
-0.1455742944078981
-0.17988960005231697
-0.15058837194266733
-0.11731554618164475
-0.04787645567833356
-0.04568374858053313
-0.07822839955501887
-0.1936265789428096
-0.02316547601539834
-0.10464567709476046
-0.07805448001883898
-0.17602194577264602
-0.02994964079749006
-0.1222495577980324
-0.15873563424231818
-0.10404377528109018
-0.18542927987806967
-0.13430738730138733
-0.17645398773019205
-0.06833687476995912
-0.015510402225929101
-0.10146870542028567
-0.05706328176979113
-0.1737806394892152
-0.007757232178436241
-0.10638750995778626
-0.10020836202107361
-0.10727129780422331
-0.15471130514159284
-0.10769566117951437
-0.021893088923369136
-0.030471920606895915
-0.04212284834431777
-0.10193914135076762
-0.020536951572366346
-0.17786984433466313
-0.06714755513100203
-0.13904986735200814
-0.009786512905635633
-0.03739289966096297
-0.0778372259840773
-0.02141670238508074
-0.11757263353287174
-0.06211447394887816
-0.1188124356545542
-0.036201714002865065
0.01659563164344001
-0.13355615881421123
-0.02612248516433286
-0.16063676043192227
-0.08962428230109751
-0.021961417621703894
-0.1126356987195076
-0.01547175453546927
0.021986574322199873
-0.13121443004367586
-0.02295684633781285
-0.03592389501130272
-0.11720493589134584
-0.11097335895634133
-0.05838129050193911
-0.1590529811337384
-0.08120638350870085
-0.10884968589692878
-0.0510722765202707
0.03470150959849487
-0.15081884415673238
-0.10807797251471266
-0.15280887349605554
-0.03660262576272729
-0.004522265970687944
0.051211413113014775
0.016661531655269728
-0.12489886043208116
-0.0015428124631258963
-0.10504129696588935
0.025219791127583047
0.08438971627827038
0.039701023896592226
0.09280457366321504
-0.023979829987549592
-0.023600219379490084
0.06403550837489794
0.06804985588296462
0.19000343142150772
0.13714581687529467
0.1728800364675194
0.1842822212401298
0.08767076658674162
0.2707246313213191
0.1746819584654361
0.18594167193699135
0.14772531544906292
0.2298611747528028
0.18449103967655897
0.23664475075151958
0.21272600368113212
0.2679983251607967
0.2130688470423401
0.08094023873308065
0.2281367029794702
0.09582931244547054
0.15424244760885897
0.049125680793426704
0.14353077628551933
0.09527372631811704
0.026815130040276344
-0.017890331878494592
0.0025798810872160946
0.037426342932948754
0.0486289920146885
0.04071641127527481
0.04863027541760133
0.057239258924418765
0.003138997161493101
-0.10446583417024757
-0.14599975778955737
-0.13082820543736617
-0.041340755134070095
-0.14911833327228421
-0.22861741186975704
-0.23174142286068722
-0.26776305861835903
-0.29610395075677676
-0.2951806047260471
-0.2583843910847444
-0.18814815534290447
-0.09104840992880567
0.2092134873541385
0.38357691602119426
0.4649627241067331
0.7524935302623855
0.7815865244696739
0.9464691775535792
1.0058241121657754
1.034746189973657
0.8601430828235405
0.7672583016594886
0.5368725805419979
0.28345962884692677
0.24916096651670327
-0.06153213949275771
-0.15923208065154648
-0.20171248088855326
-0.3716336952065487
-0.4558427212654694
-0.2832175554007104
-0.28350945011365936
-0.3807651510729049
-0.19595497792529326
-0.1848261246405164
-0.1322733342099663
-0.11086351469611336
-0.08813218094679254
-0.17728398506876714
-0.09603892351266317
3.759573828236995E-4
-0.05417314045830963
-0.10761639040239446
-0.08497763368458396
5.957525987525247E-5
0.02767436759913368
0.010077402133616076
-0.10010646231367076
-0.0015275204699806005
-0.036825874496051715
0.011831775897320929
-0.09140398996059744
-0.05198108483983014
-0.070094813946651
-0.060348618865889395
-0.021401661195438876
0.0604658111124736
-0.0136224859373697
0.11774222482397764
0.11298758481822627
0.17772397101629672
0.013757835523900322
0.044990592672629226
0.0949934166212828
0.07939638265857499
0.21462855897292904
0.28506782705507966
0.24223011275811662
0.2297343904213344
0.2992582770623511
0.23012791934875002
0.287498098777325
0.22917254077787996
0.3310001090955446
0.28662788565950287
0.4248947668540335
0.2722911374777867
0.36261349714507096
0.3320187671533006
0.3454644219598788
0.4609937678886543
0.34390589771696084
0.2970793238632185
0.35710126298076905
0.4600175446592022
0.40057676883124815
0.34557296384109587
0.3448972189835193
0.38598375176327115
0.3189236775742116
0.2891160182127251
0.2495672098701747
0.3409365246114038
0.32336299470641844
0.29668387384738376
0.17786361748001606
0.2685838872729133
0.20826272424865405
0.10981747802400998
0.25004623570805296
0.19366585887458118
0.15129795257984735
0.07794284148570346
0.056897153920992045
0.0934626857948103
0.026885055503776963
-0.01939646522227227
0.046876809576839575
0.10142600750929709
-0.0720010738336741
0.07548684323121424
-0.08203117888929409
-0.08065476297018398
0.061730630536649414
-0.06023821726238824
-0.0697729549100567
-0.07047894579200958
-0.04817839188056664
-0.11173848099097708
-0.005223079740310964
-0.14070867820167776
-0.1388848184033889
-0.10901125614654075
-0.15084673057895692
-0.1462007610493875
-0.05000520333962549
-0.0023918355479345677
-0.1766854455116253
-0.10890676960787206
-0.16327435953236952
-0.12301723028444714
-0.17403052750341114
-0.021122267315959314
-0.12813738599585645
-0.13497279956259303
-0.04527290911754628
-0.0373137489064202
-0.09789640153906078
-0.0336602530075405
-0.0548072696752623
-0.06875080032326626
-0.01699116859016632
-0.11585617958307523
-0.004768927262516279
-0.06971897498471438
-0.008113481388906885
-0.053931961573465734
-0.13777430452999306
-0.09693281575158513
-0.155003126167545
-0.16897119238761144
-0.146191977376248
-0.12733863143629168
-0.008604703711480532
-0.09912782555081329
-0.1321273751465458
0.0062069402250938405
-0.13236913486156032
-0.13935641463974535
-0.10869327584244616
-0.07171733344332634
-0.04083542420352326
-0.09884871502516837
-0.1031065857122805
-0.053965394457719994
-0.12011014838559267
0.021780691117215756
-0.08915662354162708
-0.0082677335127712
0.005712647285498862
-0.12855699463126163
0.012259012875911357
-0.020030000133918934
0.03782169820528397
-0.012604525624728531
-0.11438140571769778
-0.14088501827041144
-0.10626145464643333
-0.038464819178441544
-0.07506647834836558
0.04315908634537127
-0.05871427707951419
6.470790858587594E-4
-0.0939981181291967
-0.1331470316283924
0.058539616474577796
-0.05962534898363227
-0.08942079247762016
0.004830896919742159
-0.02123591474185963
-0.09188511886616164
-0.09973627586684898
-0.04655651153922641
0.028122334206247095
-0.08255136721801073
-0.10773421313890562
-0.04751503961349432
-0.10008920978594517
-0.0025016859697810853
0.03227814878975796
0.06551480025935197
-0.049385163744527484
0.01351578525875935
-0.10457121181667661
0.06863875138158458
-0.047972367191253557
-0.08270732528863212
0.07547825484687604
-0.027263257518120823
-0.08103172437499556
-0.04282543339092308
0.10658371352956614
0.03132469187802831
0.0956874723103906
-0.03811886157604054
-0.01810957730156483
0.021404177741657496
0.17631490237755867
0.029260645133987906
0.2129237098444467
0.1422235782683783
0.11506012163593826
0.28918154558164877
0.14217094592314877
0.15366094665992963
0.23575435012466522
0.2956312620558613
0.19859740080939797
0.25577256708152246
0.28636249250058854
0.19371542383127305
0.24494912324747653
0.3205807545826587
0.20839696385814904
0.17463648236448356
0.33604973006721117
0.19695840049683253
0.16928654242135166
0.23828756009072788
0.11935877860109778
0.29055783846206856
0.09223725161050689
0.20317704184228919
0.18731758808710183
0.14863911394484103
0.11995183594925765
0.01832838209024759
0.17616245704404027
-0.03070359318133195
0.049578708085390964
0.11445470993068306
0.10868134184293546
-0.02372177831308845
-0.03794108336236099
0.03012346188258157
0.012509994340127607
0.017049000370820216
-0.04634985787367609
-0.14749568874653168
-0.13334066821434537
-0.10679314254678698
-0.08662235625436353
-0.08777094586108462
-0.2290448467244935
-0.17623153599663488
-0.04184182288970704
0.14413842458480022
0.22103128861125756
0.4371235028005943
0.49356713344691966
0.8172401586510069
0.9395720551329666
1.1548442729391204
1.1410289165582188
1.1950728035272578
1.182521451985916
0.9980534616946877
0.6855256079135686
0.5678214423533529
0.30842445535246205
0.10419330215726792
0.012351259424245309
-0.04729710420764481
-0.14574299781130853
-0.2804013745346489
-0.23873815161299083
-0.3705952756086246
-0.3051223317216496
-0.31631660062196176
-0.16774251024870632
-0.10868410261341159
-0.10383233852475746
-0.06822067048737795
-0.04963862932455423
-0.06546361312117524
0.012918687957636454
-0.05123561019692098
-0.008968621937540656
0.06518785599236665
0.013916040905075889
-0.065596679076597
-0.0362048389693707
0.03495085504551367
0.1359254200370843
0.09379766263097988
0.008611942871817886
-0.02079955857432325
0.07004858855406447
0.17981179177477297
0.044532635917493256
0.07832487384978987
0.13025391508888418
0.10090955572252072
0.1860256538556384
0.10206304323794932
0.2565546095507078
0.0938878903672724
0.2239384139945481
0.26448359154137985
0.24548545852324044
0.2894256997127493
0.21706953646428576
0.27501569175624707
0.23626273847643392
0.41080253123418176
0.34236651655034667
0.38652599548432803
0.3286981801430194
0.3013364506853617
0.3808712243126139
0.43032562831824844
0.43110466009214854
0.47399001155947984
0.39290189580348794
0.5406577502132321
0.5238094699817228
0.535982859821915
0.5566427070592324
0.4042027330965683
0.47754207705968604
0.43387600209863303
0.3791386098355344
0.5101197117036215
0.44177009424683056
0.5121939165409917
0.462981558990906
0.4942598726250616
0.46913198909253084
0.34809572957102636
0.3733042361693867
0.29361968798137633
0.289719934085483
0.30590957480715064
0.27100657683951446
0.3503014800844012
0.2082153422229231
0.186406037525142
0.2861403664108725
0.1379662379405352
0.1877843571275005
0.24333073912324898
0.1728217541835918
0.21089381244134803
0.15722874377226234
0.14746816592105877
0.18049931555339366
0.16379862142806914
0.15135152482580005
0.09746083106994266
0.11790443473492737
0.1513763597254154
0.02002677202677413
0.003181247174669312
0.11329351215930973
-0.030231009868756244
-0.04299101070048224
-0.05292503368729663
0.017919969298732887
0.025001779899654287
0.049331392036550174
-0.05056358584824159
0.01958723646345627
0.04625014785023345
0.03228688334245413
-0.08712024936050773
-0.032482392102794175
0.005607380399063722
0.042416226976487385
0.03477214601789067
0.056935205353580376
0.07318738398327806
-0.06843797485520142
-0.055735470111715146
0.09594203073651142
-0.04378579620035236
-0.07604022627340032
-0.06421420050081057
-0.09039837527891012
-0.07731023828923836
-0.06914415689130518
-0.0703558300690134
0.011357975191582027
-0.08219867538818358
-0.024819213349354798
-0.06875250789868272
-0.08334078224159348
0.004648409433128331
0.05343380089492133
0.060155435196862055
0.022963184557144634
0.10479978028716196
-0.0826672030002486
-0.040974217196532284
0.10793213397253103
0.06963087411641994
0.05034893693250539
0.03661317289060108
0.07543960185242443
-0.05308619166416918
0.0030217720039109157
0.06690028510612078
0.008119781917671452
-0.028710444889179523
-0.011876828993205402
0.11156117565546553
0.014014883548449108
0.0135271987390157
0.11271743468225041
0.09630006381966577
0.11840974794792798
-0.020243554236624856
-0.07650982659231774
-0.07806359244595393
-0.02792142863379108
0.005115125858350087
-0.06384185396951671
0.07836639467597674
-0.010653203852629647
-0.03905950760624191
0.10618964750233505
0.05094923684946545
0.06136097975432366
0.01164812253708246
0.06143609228535905
0.010556418184430472
0.1212830978819701
0.09677496807582238
0.07374545106941889
-0.042718091208840556
0.09025446084405853
-0.06065679682610729
0.07518134366523133
-0.007918532892108726
-0.008451737494715061
0.02562063051334059
0.0125548055934784
0.12323464929842903
0.11581624245756611
-0.061026157824999
-0.05485268343527759
0.11598996479137637
0.11766605368439567
0.09116854551705017
0.13623775798170296
0.09878327608268972
0.05733093088818553
0.12170892827020262
0.11042575099361529
0.1414203571666099
0.06821148170691263
-0.003382547321234511
0.09984819775157579
0.013389672972363209
0.14895995754966307
0.12121944108769234
0.07502524864166124
0.10330840646313968
0.1737888843135622
0.2620354123124329
0.24140407694356153
0.32582786281270615
0.1857902469985398
0.17066798617706075
0.32575489201947666
0.28121453710122946
0.3221649857543559
0.39841730349044685
0.4138089792726456
0.365479601441131
0.39818747409617183
0.3436911078764778
0.24768157646575978
0.369824496627537
0.3441926109158106
0.3262008069037583
0.37227412622562583
0.24276219058884618
0.17511938756595405
0.31314174586769583
0.17827781129666623
0.12613277986452748
0.26282165109990346
0.09001566022329965
0.08480558597350253
0.0991063785462145
0.20970548503649844
0.2059462927894638
0.03004017248445988
0.10124414029479348
0.144367486518986
0.13939244328815442
0.13493061284214514
-0.001730063257140771
0.06725001106425368
-0.03351657138657568
-0.09912535950553579
-0.030484153784322766
-0.005750335589294726
-0.14553280197207494
-0.19862647905976707
-0.19115459470010174
-0.23491580507655763
-0.07417559078109587
-0.1478911850922187
0.03593667569456015
0.126877856903789
0.18107169375302437
0.4525877930392184
0.5097755508909156
0.770501352027236
0.8270134711125336
1.1505045733418076
1.2100454161953054
1.2746490931836765
1.0499230313052257
1.0727256320796152
0.7555049698635682
0.5764459859142425
0.346029046733092
0.17938441774320457
-0.0043480101204522725
-0.12981826804264668
-0.23003183380770942
-0.16618674851017112
-0.18833901786215285
-0.20566852178402267
-0.2326551517884696
-0.07071833548543333
-0.1219995750232939
-0.0026035311248236645
-0.05095905545960111
0.07324333685407872
0.038539497524018196
0.1452778294203338
0.0015390246451914835
0.1274549859695344
0.14533296159530118
0.0479245897295401
0.08028709377752105
0.08872375311548518
0.14051012045814845
0.11799681633544146
0.1882271761009902
0.029675355917197346
0.055055629776221984
0.22732664302134964
0.14847643033836705
0.17216095821402103
0.2282868747216831
0.21247639251692327
0.21869925670529639
0.14927579726513618
0.13500061082367695
0.158329886838051
0.2582626587681887
0.2243088521773166
0.28424740410430005
0.24807290794263984
0.2594129934963962
0.39151279059970856
0.24787801052943256
0.32234660729809095
0.4550211132389769
0.3174057776757826
0.3986660804686763
0.3593965934724365
0.36932149329495745
0.47496443011159506
0.486578814391702
0.4187394161663671
0.3916568546108533
0.497852919553937
0.4812557476752331
0.4615351465293712
0.4934418686267183
0.4071391026668424
0.5088645443238695
0.5494667747437003
0.4887455412964243
0.372586052760624
0.5338520680544614
0.44799856359961543
0.4720894899963796
0.461296488632397
0.4165567916974391
0.3910585777311477
0.40866190680814174
0.25880750280892517
0.39164964155945853
0.26311816327504534
0.26600387866981046
0.20600989098327116
0.2887127978053197
0.2821852741331433
0.260089885157232
0.25539844112416216
0.2066874079435594
0.11407072082789141
0.24445256677350513
0.058372480310353705
0.07910110573291784
0.14450599378979195
0.00603970506682644
0.15264373513649
0.0348546682444387
0.1190923246066139
-0.0330262688677766
0.06914007500782594
0.03779372945981709
0.11628971664719356
0.10922708456570196
-0.03277730332897884
0.012813371554683272
0.10226466464895802
-0.06230529571851422
-0.05881785292470891
0.10098251400588633
0.05457692528707232
-0.028750815865088243
0.06035357409008754
0.05630399038199795
0.09593802177795771
0.053800744357400815
-0.029582779120497827
0.0018618974136907947
-0.008657465750545722
-0.01702038178153649
-0.05864247822259468
-0.03453640559757362
0.0610760011946075
0.03911201356625674
-0.041879198821716444
-0.016196710620651967
0.08154026809135838
0.05442638590808302
0.05512528720713286
0.003181504035747275
0.07554191957770984
0.00871045999303647
0.049616559702034546
-0.03703638132889023
0.0786140952233306
-0.03194449530059673
0.05308507950025768
-0.061325241726078374
-0.0984492658646457
-0.07326302344115314
0.006757783706148447
0.0928106083676285
0.018775871735994112
0.07910644174560716
-0.02603694276023757
-0.089239514198323
0.07101269806216588
0.07919498069793712
0.036410657912265935
-0.09094046977849532
0.056067655944069074
-0.0978047099931599
0.07484830271674575
-0.09619495220102146
0.06614125055937735
-0.0885899904186696
-0.05550209365702037
-0.05665213307313634
0.03579321118382826
-0.017876175835087105
0.02989602686184465
0.08201126095320001
-0.03070229766044984
0.08714510169853278
-0.09803570826790547
0.01160383518895073
-0.06534498488824952
-0.013673637162581243
0.073795601740925
0.044609857049836055
0.03362047035639357
-0.06357783251943827
0.01972835245272081
0.01933852228713816
0.0432678384984288
0.05090558907013959
-0.025690800937224492
-0.06487231640272728
-0.06799386989900144
-0.054653567207152115
-0.06598343122960845
-0.06432918547694899
-0.09262715014575129
0.029285385101208587
0.09631037164733669
0.05070550522197603
-0.05989810790098354
0.07806628955832894
0.09022117576073668
-0.07612234506402037
0.03447262175122025
-0.01742197828953107
0.11148366708450475
-0.05337134331771767
-0.054596936076950875
0.10283619485828635
0.07644254357633903
0.08247919614984814
0.12596247405115982
0.1549100818082407
0.21366282457579916
0.19306740713657505
0.18185978946520598
0.13755042395468411
0.18360537767471818
0.13892449351978192
0.3138105272210877
0.2944723477324689
0.28104475015610375
0.32045916930523266
0.28115759997655754
0.22731058493982417
0.30746149620400665
0.21032680881484922
0.2978544791996938
0.16874292932195228
0.18386209406856296
0.2555249507639627
0.22267248116213884
0.20922557403080205
0.2634716661611887
0.12165089619526474
0.24914393415709607
0.1934495172780504
0.0485346984299221
0.013115789141188772
0.16517116122891712
0.10028952711337244
0.020159011582761788
0.06657397082456523
-0.04568784882424791
0.07596358591183575
0.06353590998330239
0.045002464644904365
-0.008723835208190521
-0.10707614843244498
-0.0941081733349087
-0.01189222509976294
-0.05911000212445905
-0.046760679364416316
-0.14859207581618375
-0.17661959237904593
-0.23844545321597652
-0.16213496953058082
-0.22584353287626258
-0.16340442245860326
0.00176417063603556
-0.010167237964202422
0.2496694108766717
0.43573918466451844
0.5201366609678222
0.775151410841207
1.0485262382596763
1.1190616841552552
1.0296781947000209
1.1269526674825645
0.937651059025927
0.6710141658302793
0.5672705797944044
0.3070282262307432
0.191562574180833
-0.037676828073474375
-0.20040930332711704
-0.3187600121424596
-0.24783812207938097
-0.25689009008253744
-0.3440371890410806
-0.2993217690305342
-0.09686801651429675
-0.11882158142942932
-0.042448248113482245
0.005045823428709656
-0.1375162637000012
0.008404709178144447
-0.08568416808948748
-0.019709438584719317
0.08640929214898435
-0.07525159993886278
-0.05057510034389106
-0.014000957659840718
-0.04606737160645996
0.08221175753084768
0.022588094873932242
0.03352816143650315
-0.035060598999145
0.08803890041415427
0.055517158847055124
0.0761339939686951
0.16085590149083195
0.027312906525861158
0.09406703515940942
0.08742300267680035
0.15885916584499565
0.15866051043827656
0.11741168802256935
0.08212491526661608
0.10216206859603255
0.1507399521288671
0.2532599234889776
0.3328047929555811
0.24418030494177995
0.34085619970086095
0.34003216879016407
0.35057022746794064
0.38007198033634065
0.26956908476427965
0.3283968461010064
0.41200999454684767
0.4607780749668819
0.36095962205054305
0.3808880286436527
0.3940933535407695
0.4548955723792023
0.4255042206372087
0.4016542958343527
0.3149054412667085
0.3399162966807134
0.30725748841463324
0.4280416586830582
0.4138532118014715
0.2889530835284067
0.3876745166088406
0.2763154465048318
0.3174544751241513
0.24517669728875272
0.30660982522113484
0.31101851863879054
0.3195841171302608
0.2928012316647823
0.2561480370623382
0.1156872043284903
0.15124970837308624
0.09501620030282491
0.03511788305863449
0.03799354219010816
0.12203980295452943
0.0574746302846246
0.09358153861579953
0.06809917498559055
0.05690398651403368
0.09085031525193536
-0.028843183896731642
-0.08115624203762817
0.014850140700936921
0.07963953937040456
-0.07419175200653855
0.014488055329298588
-0.05725844506521484
-0.09399008698701394
-0.13503427102106053
0.031933243329936856
-0.04291481300300629
-0.1051294942786657
-0.03791152970593065
-0.07181825398217928
-0.02635596622614584
-0.13099279619248344
-0.14740039219534118
-0.03500080887683704
-0.02226720689386142
-0.16065627682998107
-0.054930910982950075
-0.09929719416533174
-0.13863246464492857
-0.05830041471239313
-0.13104614467195894
-0.04701964305432951
-0.11129817607870668
-0.01968587598776439
-0.06828829538085093
-0.050053087161387386
-0.08718421160279234
-0.037153542356085555
-0.025908589959325122
-0.07008059203593642
-0.031824532959097096
-0.008083458975329902
-0.03824227623953695
-0.17322327718435065
-0.012643096019481465
-0.11423473043668472
-0.0600146556669934
-0.1381083522630454
-0.1150578075870452
-0.03450254275719543
-0.16012158541317628
0.024642861104510097
-0.09820398257703877
-0.15795861413645684
-0.009685927168315553
-0.07884476186584452
-0.06647581256623877
-0.03276302248983287
-0.022318051638310493
-0.0544186808066194
-0.11347383781957363
-0.09637752120871754
-0.0332278483787397
-0.03357167127208671
-0.12959580230551715
-0.037839101861467286
-0.08642928315690589
-0.1613387111756222
-0.08676896595276443
-0.13833644053945685
-0.02795859245589819
-0.1253560606898476
-0.02143001755248801
-0.059393669324084596
-0.13539144270983175
-0.05971236903658199
-0.12234805075965033
-0.03132322288739296
-0.09246912443127156
-0.06107331181896971
-0.11628576198326127
-0.08341568416865586
0.003104978204298961
-0.07181398860151214
-0.014650091208923216
-0.09915086336420399
0.026811089832168872
-0.04217414010048172
0.03106061003205994
-0.05352649976305214
-0.11173997305241856
-0.0028839528754050006
-0.042982209819530895
-0.07979661675466887
-0.04739773605367855
0.04247578242519229
-0.10513065228567321
-0.06758959892504782
-0.02655203355648913
-0.004181384811153054
-0.0582416185527615
-0.020134208753293047
-0.017817786849155047
0.014450517256276763
0.07623529319589745
-0.054928683930808714
0.052584313618202164
0.07415081710549631
0.056529342248700064
0.017975560067850616
0.031491595426090424
0.16051652826758506
0.10643577901843934
0.11727045543740781
0.1987887278075548
0.09584774367399827
0.22104184096800175
0.27673429192895704
0.1271708940543992
0.1848769637817163
0.2520997243092656
0.207995247048051
0.27450823590409534
0.2788011273428035
0.19839157355979675
0.25337420144548795
0.13240682370147736
0.19217124192074375
0.12997120748180374
0.12261958041762319
0.03588854692256169
0.15809916772489446
0.1271423535540141
0.048436486334009335
0.02817918649631873
-0.04857987475737642
0.0058179500697938535
-0.012984732980868564
-0.024444497216330366
-0.07923033030037671
0.04164020186002823
-0.06748065485761955
-0.1239400076795563
-0.15382494699574029
-0.16222119900124365
-0.055196991650908814
-0.11758423355922752
-0.11442986370656569
-0.20870709374099197
-0.25816119927659786
-0.28062748411373545
-0.2208618341935017
-0.12734085733845263
0.07797642545286523
0.13819782846202214
0.3107927856099074
0.5494632905934637
0.6873932492741414
0.7783511874985947
0.9366642114204788
0.9949581361797069
0.9402114830309228
0.9177226470267148
0.7677617841276715
0.5169886020235679
0.31626666686988925
0.1683641770116734
0.010448537864309604
-0.19819533459713173
-0.34696674048899817
-0.39596621012473987
-0.42753002034562876
-0.2872582744227611
-0.3588153776392839
-0.331860362020772
-0.30146105224219
-0.09782870489884146
-0.0655300882830559
-0.05044725561199108
-0.16165454213696537
-0.13488345799267193
-0.04538672970061911
-0.05131112134298846
0.016031430751748094
-0.05822359840789608
-0.03581757088789307
0.024843947553729054
-0.020297252766510197
-0.006926876626861787
-0.013308619922584218
-0.11031694812093679
-0.001460227733084872
1.5880652149323797E-4
0.05180831164049257
0.022558043768495007
-0.01283129725181368
0.056764686202040754
0.08351983390848454
0.05930914225363752
0.18194884974751313
0.12328689556413559
0.19001682500462602
0.030120876289941922
0.06716298819779883
0.19571176767187334
0.1247576549496886
0.2817557967336217
0.29100771288622773
0.24104721609792512
0.2016630133399572
0.2778379249528813
0.27351685175777996
0.3577404524521236
0.3683270014801554
0.4226880747873767
0.4224928123980586
0.36997302685140354
0.3783825125174076
0.3443617384138874
0.3359401836489636
0.2855342531974208
0.3853832233330778
0.343583632334779
0.40014658765843786
0.39974653632301277
0.44831198498888897
0.41662907495850776
0.28493602870090184
0.39342547316568716
0.3644774881456999
0.4015317108930462
0.34548512148068794
0.20060258712262233
0.25784525894070276
0.2648283616611784
0.31772316852395766
0.14311045673988054
0.2244786315089839
0.09196819785718446
0.25241327358003246
0.2029733409266275
0.14152536536265126
0.10377550893824955
0.017780468203987237
-0.0074685756478735515
-0.011228078549584242
0.04593573591865824
0.13271162384400045
0.02991506622209622
0.024017465256335434
0.017247609570703114
0.032322671227993684
-0.08227625558611967
0.02222176949442605
0.004190527558997216
0.004034059595723484
-0.02546966752373947
-0.12378942455166116
-0.08543960696907466
0.01711544366426508
-0.04440422426763283
0.03558267632492307
-0.04434880948364267
-0.06247198728707567
-0.1615924041316117
-0.11304024056854031
-0.05099772641253836
-0.0179318436368177
-0.030125634957927083
-0.0834685421753117
-0.14337009204166906
-0.08958953065231898
-0.11559204012682789
-0.10798508855032979
-0.1023094037936832
-0.034962977701782035
-0.07789849398156629
0.006723759378002153
-0.16073767849646087
0.005084296676567568
-0.1310880372088739
-0.15205501726166576
-0.14539124226907224
-0.0986099564878152
-0.14006624541161583
-0.1048718885223471
-0.08646442015420272
-0.010631041301011578
-0.1396598607519392
-0.14299222786712382
-0.08598875990590893
-0.10988604429414939
-0.02147187510885472
-0.10010553290720636
-0.14681324100186288
-0.12479060443121576
-0.07069195016095203
0.005569215250864207
0.008912721543692319
0.0035550647485213804
-0.1050713182027814
0.03697362870048883
-0.010980183642943321
0.003017543708164455
-0.1142719535207549
-0.06224840672539232
0.02738913132532779
-0.059332586579403254
-0.004732206239303392
-0.0814257246655625
-0.04184842388209399
-0.045766297663373555
-0.023651717966344875
-0.04927645290852476
0.048680172917682576
0.030884418024007168
0.020951911616239882
-0.04644276978512027
-0.10334909802933555
-0.048558536568004185
-0.036878521617950556
-0.0973959517621233
-0.08548341136472487
0.06928361228749969
0.04740182079942132
0.01788544942729088
-0.035571154829849315
-0.036757332907236595
0.005067437766940488
-0.04103550463521566
0.069963734838326
-0.06777965244023987
0.04545984946109985
-0.011902954027472634
0.06462477312200746
-0.0894890873970408
-0.10940073563565565
0.056986091071843034
-0.03720784736595815
0.006103054140694531
-0.023195504226240907
-0.06368334712034338
-0.002907015985230776
0.05710561346391803
-0.06471996557336547
-0.005167464913042787
-0.0069100543754202284
0.0310508694889882
0.11130414621164254
0.06273829441889983
0.1330009122296879
0.14184332400965258
0.1587292201839331
0.15042200728581495
0.13800612556325292
0.08810622130833234
0.16454980604285893
0.12367681557925862
0.11402074808951496
0.2439474013187143
0.32130293059286896
0.24461106556798573
0.30303383848429777
0.1787950184525817
0.25660471933475126
0.26060179650303233
0.3140413372864148
0.30047535320777785
0.3264367930494628
0.18848314101472063
0.3471752249213284
0.29519344162528605
0.27252111603060425
0.2735712581796358
0.17408008237478778
0.2791385066427515
0.204466632848197
0.05895096139329693
0.20128966613555271
0.20557925958774564
0.15529858880585903
0.12947289994368363
0.10356900508249531
0.14408835292029915
0.15080067678459477
0.022075722966699338
0.057429235893398295
0.0331691245307249
-0.05900144110425909
0.025783554630847572
-0.06925621528133669
-0.05957815739098224
-0.15799506172916003
-0.03174262409787701
-0.09894992297015648
-0.04795221053982811
-0.13429684972103814
-0.06978708879186994
-0.20546812298176098
-0.1346915328498281
-0.03553054885949203
0.12391941214599764
0.33136175553695835
0.46558249211645414
0.7670192192883374
0.9509292621974024
1.0023486830704793
1.168453258823427
1.128704863874152
0.992672323167041
0.981970612121952
0.7980322525961201
0.5487714734424214
0.2921004922339593
0.04317386307232801
0.0054938458767230455
-0.12590797962472192
-0.25222614314244823
-0.24810399701161678
-0.3394476158471235
-0.29542710695528307
-0.14286714566491676
-0.23627551057136661
-0.10243836486916062
-0.18627010187174178
-0.03021340347719831
0.027112424551831583
0.0553189821648061
-0.04507539120232645
0.08614069695298027
0.02370596646126998
-0.04922757051633865
0.09725362559098659
-0.04208869026752668
0.11206925562962938
0.08137581206582659
0.012390472066417864
0.024283369507307327
-0.020407082329860382
0.09695498251410742
0.17689065034322768
-7.6214313652051E-4
0.03231355103436244
0.03154695753478193
0.1555519675374011
0.2294542107525822
0.14404623441057024
0.2154343560925267
0.2563236284186987
0.19172736379938624
0.2248497552687725
0.17243905503476278
0.17820577700008988
0.2120258770947476
0.33669405347694165
0.3431930112067658
0.23654405776871237
0.3458844984493613
0.3537842615683829
0.4192100081361011
0.2915064897536786
0.34394941000493856
0.3699095716241224
0.4928091065196434
0.47270942338901223
0.3947397702718396
0.4428105672696933
0.45553530173684886
0.5457737544205659
0.41758859567527506
0.4822106674639742
0.48276004551044255
0.5431060215406431
0.3595824769533794
0.3760870247247897
0.36168289813655213
0.5186627773014331
0.4996013082979896
0.4838282454354932
0.30547051741963016
0.2828919941652119
0.3303955478187506
0.42008505094578763
0.4165643896151361
0.27833158720070866
0.18947748505831286
0.22673551311403065
0.22447238201612527
0.1369252103402202
0.1873745513219086
0.2567381374174672
0.2737356321725731
0.1647425567613747
0.15761083244431767
0.13906100456408726
0.1215346847867525
0.06194335494971387
0.0044691465018699
0.0821700788332291
0.06961381400412672
0.11681947826376168
0.056744158372856304
0.13885781989173168
0.09995913767652043
-0.023113354596668426
0.009280109934619495
-0.002328379291638573
0.05768880992613922
-0.03721951213234245
-0.05770917217522846
0.09293044409436842
-0.03938305639822825
-0.0858998465173479
0.04715443974582683
-0.022446463271958338
-0.01247893023151523
-0.06314237864294045
0.07557356487724161
-0.019743957854473495
0.004371550514880007
-0.02196345604295893
-0.07731865174059555
0.06701929093573342
0.06928928909598409
0.07187852977814425
-0.032440556704777815
-0.015240081436048148
-0.029908230654022074
0.08588933924973527
-0.029699153550417946
-0.0743413757417381
-0.08420640411687524
0.00796686654957116
0.10008684366880706
-0.06121514341485959
-0.03753798524444372
-0.050645463467844945
0.023290443253109208
0.09905907206479156
-0.07420806382742737
0.014992979303183173
-0.022993203222472683
0.07348305750693425
0.10460911637379189
-0.07446350498206834
0.11921187848468572
-0.02365400490338742
0.06403420315417052
0.0038414326937640797
0.09056981420147835
0.026580848776335386
-0.015243015893331796
0.0421703284438231
0.047940157951938886
0.010228362045413919
0.11188326627952128
-0.058949785522738274
-0.06478762870715492
-0.009442606797233091
-0.044664350998165
-0.02401382512166788
-0.06181197020249696
0.08352668053079461
0.08323740814549749
-0.020063621827668167
0.09328721759362668
0.03620667045156793
-0.04751279191734059
-0.03998232020240526
0.05044205919259012
0.015829653589697932
0.054463701775837994
-0.031081729755843265
0.003966903009441768
-0.06179359468388164
0.03661544520772686
0.016060673423983873
0.001097662075240556
0.13594165358574228
0.0774243121750226
0.025456372367351453
0.09902558189441563
-0.0148878698786611
0.09629996336793359
-0.0553898738010718
0.08968992004900363
0.06948532522343841
0.08780255644045121
-0.007663947708547503
0.014489584764084115
0.0022132843332715035
0.019599226606494602
0.11072332859978451
0.09445418827795196
0.12665465761012304
0.09498565180714826
0.1704298612876709
0.014918021825172018
0.07480739364782722
0.16655042988353072
0.18291957368869177
0.17084976462968465
0.13719938080458952
0.12014415603340399
0.26340658646606013
0.2879141462850028
0.2844969070832694
0.28748471287587485
0.18026805785347932
0.3194503470968651
0.1835534743156093
0.2737629752123755
0.36098469629879565
0.4055883324067522
0.4086431459082506
0.4025821711779982
0.24400194528544236
0.37242772757053033
0.3577167174258316
0.29403830362355443
0.26275607436920906
0.2342613196240349
0.2638286015277048
0.18729271048912807
0.34001047632486003
0.1665270744630149
0.29702342884494515
0.2283475822037757
0.13844786574977977
0.2467346036606044
0.08183109151756145
0.03537931710538905
0.01977824572189696
0.10802932056616846
0.13776659745347855
0.06966742540196663
0.12233951124775574
0.14089266800785216
0.03655623493596709
0.09814935186289014
-0.03393131636604316
0.07731110854418183
-0.1113995431909681
-0.1228382001544687
-0.14592042469420632
-0.19592970165325646
-0.13861894214179668
-0.20187555616390357
-0.03791236410007983
-0.04021480332369974
0.0942843248390105
0.10540889622691785
0.3861263431505815
0.5646855050104173
0.7496521733373244
0.902798957217803
0.9462637838329407
1.134835169181678
1.1746221387774196
1.2060663689824618
0.9805325705275196
0.7936576698742077
0.714361655471055
0.5013609974941851
0.30870158590463326
0.008412986549743845
0.028308490787143287
-0.09724656161173878
-0.2579366872343486
-0.2505271173758155
-0.20151553253430265
-0.18865228156609526
-0.18782310412680336
-0.10428748942234545
0.04968934003576159
0.08957301132685672
-0.04498018100965588
0.012497118652851833
0.019663617552722765
0.00783252035490447
0.09436007377688778
0.1336928830554394
0.09542294190838992
0.030486158978051625
-0.017289983920191182
0.1563224352680423
0.011331338457212126
0.12236859590820373
0.12874465643462002
0.15031116758103036
0.18358086406032414
0.2197222593083157
0.21748043811230802
0.12727941158828998
0.09465145338964513
0.16022335506795238
0.14688297734405403
0.13478831964164492
0.1908000536156583
0.14322085368398557
0.23217851063659675
0.21412603601989805
0.22000472645635916
0.2583724654104275
0.4114741592086352
0.3560541649069616
0.4523832118674072
0.3742032463187025
0.4423299649528449
0.403869084781802
0.48735438340094395
0.4549433236570591
0.4366150278545499
0.34683666698708954
0.4825453265572915
0.5308107263545073
0.40065843857860817
0.4524453338440129
0.4097510250227888
0.38957622845518064
0.3709832683246062
0.3607891737535292
0.4581997253521489
0.4124642885395666
0.5201396947266885
0.4568916208951219
0.34547961935916555
0.37146458533075044
0.4372508892299186
0.4168734543418163
0.4117713934229689
0.2723151282673125
0.23046052227307912
0.2590468726247665
0.20914728042719005
0.27987828200780496
0.20290191238903074
0.31420100197213535
0.1977981832004478
0.12340719373682707
0.18666096705493895
0.2016664563244018
0.21016196815664437
0.11635731169964963
0.12480892338542857
0.08786130722490633
0.1351108193945158
0.04418253451585363
0.030118768957475582
-0.029115319348668525
0.034063257035137684
0.11661632593378543
0.08187113595480539
0.03839705433908382
-0.06474492129517875
0.05333225579973068
-0.0770534333933216
0.007122947040666216
-0.07576230894747465
-0.07684971087473473
-0.08822895222818074
-0.06920785873884129
-0.08181205668801851
0.09411713607971615
0.0883540525004457
-0.04741415084470516
-0.021090314272179646
0.06616830722082966
-0.024118500462221592
-0.005378246519004714
-0.031283836397108244
0.047417733519624854
0.0802544884872455
0.013137268593310793
-0.030846406764960622
-0.013178404380550202
0.010706503711780627
0.01732553181567148
0.06886535804098055
3.0007174312812745E-4
0.045904841186166646
-0.03858890157577403
-0.0912493511416408
-0.09478018580226277
-0.10660326077268234
-0.024596213671388433
0.048882205403062845
0.04214549352009626
-0.061153745478022506
-0.0649413923375449
-0.02272327676230368
0.07517543340059621
0.044077844465822115
0.043236992584988455
-0.10510091140291533
-0.09980514415127865
0.00968848201568483
-0.0315375985784062
0.02225010604007234
-0.07667579900892733
0.07321818961169718
-0.027563929208648932
-0.005845602117206261
0.06635324178564571
-0.05805670006735796
0.009283764091837322
-0.08647332522124797
-0.08039286226527156
-0.03765443722730645
-0.03488565036738196
0.05886360125759972
0.010883760803604349
0.04438147056687067
-0.03397414213200034
-0.04053760235906655
-0.008893393957121066
-0.022478770929151782
0.03344888885897327
0.025216658326627527
-0.022799457274394443
0.029377201949210084
-0.0833062335570056
0.09306391882394283
-0.08855859501596736
-0.09059347639641913
-0.036276720495417136
0.04588209139965212
0.009734305422714928
-0.10450862873730532
0.08241808661688649
-0.012690216686893109
-0.07418270695302379
-0.013704113507837179
-0.09408104280459924
0.0735290990841704
-0.021268187150036623
0.07445383332520845
-0.0036976604484709515
-0.033398951668619774
-0.06321421474746655
0.008150586272914817
0.10489546934261841
0.0017018581673519106
0.11042456117942703
-0.019869271205420883
0.02864573241866166
0.13208256651912548
0.039809210591786215
0.12355795317455254
0.08371850363959432
0.14769994453913604
0.15233650786961866
0.09837657075530228
0.18296387886939192
0.21141278409209904
0.21004277815416575
0.21316868883306772
0.2313622889735914
0.30200367342855217
0.2879948298424477
0.29658941551735385
0.36021724263277016
0.203789515104014
0.1583375678964607
0.2316804393860543
0.26879863754225836
0.191097057181072
0.15215179043729896
0.15698941932176097
0.18986607249876553
0.20117958273103134
0.14089794581773593
0.05323534117340546
0.15419063724633802
0.016802491893847124
-0.011516095643013771
0.15472981371330607
0.051867317045236436
0.06296749590625292
-0.03401207158513603
-0.03570373087155698
-0.04286697879756131
-0.09151279983339307
-0.09382080108823733
0.013100809031543682
-0.049223222060858086
-0.08307636836487339
-0.03345766674658324
-0.04340474206171781
-0.08472879801383579
-0.25310948887256646
-0.21613006411815566
-0.19882400540186745
-0.10725916321609238
-0.051677633766474065
0.12703693051359172
0.12081765439659718
0.3174614285483619
0.5850704609966976
0.6816565396155329
0.9818329079162185
0.9830014052319004
1.0567431861245282
0.9791989174153705
0.9411099290367251
0.8175426403342171
0.46359557298561366
0.31989393464034427
0.07035202564718132
-0.12693570201291207
-0.16497375835903025
-0.30631753580396426
-0.3318097740883383
-0.38689049245601714
-0.398559130738411
-0.27840418857638183
-0.30088702960547675
-0.16106643630517428
-0.21905105387169377
-0.07110376227035506
-0.06336007464999839
-0.12787080514364568
-0.02616353103869854
-0.12281209513783024
-0.04105433556570885
-0.08787981902000609
0.021037692007944413
0.033436008607023046
0.0521658947253274
0.04019439909178257
-0.038681988275708706
-0.03436252027933817
0.0876249540013755
-0.018077310231071255
8.325854311555837E-4
-0.06305875258702745
-0.03038221317735916
0.03879566420826599
-0.019707290731324156
-0.019039376088269402
0.023917023976507343
0.07237811968605357
0.21367102352083567
0.0747551591335927
0.14483390130782023
0.08624456671533999
0.20380238044940419
0.17972821902788969
0.19997476303418996
0.2093678746589497
0.3329797933677622
0.2339262477549655
0.3643998765122657
0.3119907714280847
0.32503313402404066
0.4184566690296023
0.2497941693481429
0.3793878439540573
0.3222529221979312
0.3529792797350543
0.30248673613749527
0.3205763261450587
0.36979278931551485
0.4611059963212236
0.32439816388810616
0.44389471989017804
0.3336464220510022
0.38919132540804857
0.357645267372229
0.36871735415170237
0.3973013541666344
0.3340954327117857
0.220619502236036
0.2436900296444887
0.21992579573809615
0.29818373789162966
0.2888959358086626
0.19389408102315858
0.12478271377883557
0.10307760202965865
0.12484958707035203
0.03964985729916205
0.12808635566148335
0.1446617625661645
0.09013749468291003
0.1620412350798118
-0.008614949518134685
0.06835011835995909
0.06122173619886559
0.03476321541555201
-0.03824426592901725
-7.628546445832482E-5
-0.12176283545679989
8.6740068163043E-4
-9.609249296203964E-4
-0.07714813112600004
-0.14672517439737615
-0.09371918722993353
-0.001576629038867794
-0.05361623862325678
-0.10431528476055141
-0.161390399401426
-0.10922850150110817
-0.05261155008844063
0.0013062486218650138
-0.10394983897416014
-0.057109599452569
-0.05672254358058268
0.0017174662857753903
-0.19484377591245927
-0.05884663178676
-0.08537802076521998
-0.07961575751124299
-0.15418777125067706
-0.14200813034275125
-0.0015050471637424179
-0.17010742176033822
-0.0352239269632806
-0.016140620042984
-0.1997329521677474
-0.1285031422114118
-0.11682824359321475
-0.028394231894331712
-0.005390484212051377
-0.11386755476548402
-0.1813020664490841
-0.04302203926103153
-0.00779871094146227
-0.19074112197805576
-0.1717991904361369
-0.13297488552364628
-0.18291531619016105
-0.01746583443364376
-0.07270444089690416
-0.1583423560226164
-0.16412755045748256
-0.1393619763252551
-0.013381909616600893
0.004622014704075833
-0.14591789186677268
-0.030035858450060293
-0.03416542553371814
-0.12427818171688174
-0.084633547129119
0.006992706333636703
-0.0634542574755726
-0.027341573823778505
-0.16074581004317204
-0.09817317230772485
-0.1251898460756642
-0.18220498172718574
-0.16499953376481585
-0.07194266563743922
-0.059458364210947655
-0.11578220864902104
-0.10252957553029399
0.0021018098618182934
-0.14175276178080987
-0.012163040451178178
-0.13728707836667753
-0.04379836562021114
-0.08107268679944138
-0.09073403723412321
-0.16241710837179557
-0.06704879043320122
-0.02272537922385441
-0.13417669792238446
-0.10431471487352026
-0.02310349083497891
-0.011814811788064497
-0.1487799713710637
